/Users/RamaM/Documents/Research/PhD Related Stuff/Beamtimes/Rama_2014_0718/contr
2-Theta Angle (Degrees)
Intensity
        777
 9.1985945E-04  1.2528379E+01
 2.7595786E-03  1.2513221E+01
 4.5992970E-03  1.4081771E+01
 6.4390167E-03  1.4361197E+01
 8.2787350E-03  1.4639478E+01
 1.0118454E-02  1.4692318E+01
 1.1958173E-02  1.7063257E+01
 1.3797892E-02  2.1428827E+01
 1.5637610E-02  2.1880966E+01
 1.7477330E-02  1.8724892E+01
 1.9317048E-02  1.5796482E+01
 2.1156766E-02  1.3904657E+01
 2.2996487E-02  1.2879023E+01
 2.4836205E-02  1.3512037E+01
 2.6675925E-02  1.3356814E+01
 2.8515643E-02  1.2996268E+01
 3.0355364E-02  1.3011973E+01
 3.2195084E-02  1.3685287E+01
 3.4034800E-02  1.3363833E+01
 3.5874519E-02  1.3503333E+01
 3.7714239E-02  1.4251764E+01
 3.9553959E-02  1.4680055E+01
 4.1393679E-02  1.4410307E+01
 4.3233395E-02  1.4523516E+01
 4.5073114E-02  1.4731209E+01
 4.6912830E-02  1.5581960E+01
 4.8752550E-02  1.6815187E+01
 5.0592273E-02  1.7384455E+01
 5.2431989E-02  1.7755865E+01
 5.4271709E-02  1.9239859E+01
 5.6111429E-02  2.1706985E+01
 5.7951145E-02  2.4948940E+01
 5.9790868E-02  3.0286543E+01
 6.1630584E-02  3.3945408E+01
 6.3470304E-02  3.5425953E+01
 6.5310016E-02  3.5655739E+01
 6.7149743E-02  3.7399956E+01
 6.8989456E-02  4.1803566E+01
 7.0829175E-02  4.7398621E+01
 7.2668895E-02  5.7435215E+01
 7.4508615E-02  7.4761200E+01
 7.6348342E-02  1.1325296E+02
 7.8188054E-02  2.0751820E+02
 8.0027774E-02  3.8642215E+02
 8.1867486E-02  1.0776583E+03
 8.3707206E-02  2.6691604E+03
 8.5546933E-02  3.4331675E+03
 8.7386653E-02  2.3886890E+03
 8.9226365E-02  1.3204062E+03
 9.1066092E-02  8.8015381E+02
 9.2905805E-02  6.6878894E+02
 9.4745524E-02  5.2284058E+02
 9.6585236E-02  3.8765726E+02
 9.8424964E-02  2.6829138E+02
 1.0026468E-01  1.7891605E+02
 1.0210440E-01  1.1617421E+02
 1.0394412E-01  8.0098488E+01
 1.0578384E-01  5.8418354E+01
 1.0762356E-01  4.4656563E+01
 1.0946327E-01  3.6474518E+01
 1.1130299E-01  3.1643364E+01
 1.1314272E-01  2.8417561E+01
 1.1498243E-01  2.4857471E+01
 1.1682215E-01  2.2167973E+01
 1.1866187E-01  2.0633287E+01
 1.2050160E-01  1.9462744E+01
 1.2234130E-01  1.8317802E+01
 1.2418102E-01  1.7399261E+01
 1.2602074E-01  1.6694124E+01
 1.2786047E-01  1.6193279E+01
 1.2970017E-01  1.5511832E+01
 1.3153991E-01  1.4791714E+01
 1.3337962E-01  1.4454000E+01
 1.3521935E-01  1.3693542E+01
 1.3705906E-01  1.2968760E+01
 1.3889877E-01  1.3003469E+01
 1.4073850E-01  1.3209419E+01
 1.4257821E-01  1.3015536E+01
 1.4441794E-01  1.2765814E+01
 1.4625765E-01  1.2637759E+01
 1.4809737E-01  1.2639767E+01
 1.4993709E-01  1.2509990E+01
 1.5177682E-01  1.2650211E+01
 1.5361653E-01  1.2345651E+01
 1.5545624E-01  1.2011830E+01
 1.5729597E-01  1.2021298E+01
 1.5913568E-01  1.1756507E+01
 1.6097540E-01  1.1930384E+01
 1.6281512E-01  1.2019821E+01
 1.6465485E-01  1.2317270E+01
 1.6649456E-01  1.3674388E+01
 1.6833429E-01  1.8012106E+01
 1.7017400E-01  2.7046455E+01
 1.7201371E-01  2.7271929E+01
 1.7385344E-01  2.0151558E+01
 1.7569315E-01  1.6226528E+01
 1.7753287E-01  1.4716592E+01
 1.7937259E-01  1.4243463E+01
 1.8121231E-01  1.3494224E+01
 1.8305205E-01  1.3453455E+01
 1.8489175E-01  1.3054674E+01
 1.8673146E-01  1.2504105E+01
 1.8857120E-01  1.2024461E+01
 1.9041091E-01  1.1775361E+01
 1.9225064E-01  1.1288325E+01
 1.9409035E-01  1.1405714E+01
 1.9593006E-01  1.1648933E+01
 1.9776979E-01  1.1315482E+01
 1.9960950E-01  1.1288272E+01
 2.0144922E-01  1.1060379E+01
 2.0328894E-01  1.0810006E+01
 2.0512865E-01  1.0901424E+01
 2.0696838E-01  1.0966699E+01
 2.0880809E-01  1.0665579E+01
 2.1064781E-01  1.0559253E+01
 2.1248753E-01  1.0712817E+01
 2.1432726E-01  1.0895186E+01
 2.1616696E-01  1.1099752E+01
 2.1800669E-01  1.0903174E+01
 2.1984643E-01  1.0813456E+01
 2.2168612E-01  1.0658637E+01
 2.2352587E-01  1.0841297E+01
 2.2536558E-01  1.1129892E+01
 2.2720531E-01  1.1160424E+01
 2.2904500E-01  1.1072626E+01
 2.3088470E-01  1.0889119E+01
 2.3272444E-01  1.0628448E+01
 2.3456417E-01  1.0858682E+01
 2.3640388E-01  1.1181781E+01
 2.3824361E-01  1.1137691E+01
 2.4008332E-01  1.1306644E+01
 2.4192305E-01  1.1279048E+01
 2.4376275E-01  1.1271505E+01
 2.4560247E-01  1.1489344E+01
 2.4744219E-01  1.1889290E+01
 2.4928191E-01  1.2601794E+01
 2.5112164E-01  1.4903860E+01
 2.5296137E-01  2.0134235E+01
 2.5480106E-01  3.7892155E+01
 2.5664079E-01  7.6840614E+01
 2.5848052E-01  9.7167503E+01
 2.6032022E-01  7.4421181E+01
 2.6215994E-01  4.5382130E+01
 2.6399967E-01  3.2759911E+01
 2.6583937E-01  2.6863165E+01
 2.6767910E-01  2.3190632E+01
 2.6951882E-01  2.0353203E+01
 2.7135855E-01  1.7472418E+01
 2.7319828E-01  1.4663608E+01
 2.7503797E-01  1.2792050E+01
 2.7687767E-01  1.1827500E+01
 2.7871740E-01  1.1481502E+01
 2.8055713E-01  1.1167442E+01
 2.8239685E-01  1.0829136E+01
 2.8423658E-01  1.1037570E+01
 2.8607631E-01  1.0980290E+01
 2.8791603E-01  1.0775190E+01
 2.8975573E-01  1.0707051E+01
 2.9159543E-01  1.0731287E+01
 2.9343516E-01  1.0640885E+01
 2.9527488E-01  1.0493403E+01
 2.9711461E-01  1.0546199E+01
 2.9895434E-01  1.0362337E+01
 3.0079404E-01  1.0135107E+01
 3.0263376E-01  1.0066946E+01
 3.0447349E-01  1.0397193E+01
 3.0631319E-01  1.0476725E+01
 3.0815291E-01  1.0570338E+01
 3.0999264E-01  1.0607069E+01
 3.1183234E-01  1.0471811E+01
 3.1367207E-01  1.0595133E+01
 3.1551179E-01  1.0439853E+01
 3.1735152E-01  1.0270644E+01
 3.1919125E-01  1.0303519E+01
 3.2103097E-01  1.0539003E+01
 3.2287064E-01  1.0544344E+01
 3.2471037E-01  1.0395762E+01
 3.2655013E-01  1.0378698E+01
 3.2838982E-01  1.0504210E+01
 3.3022955E-01  1.0542949E+01
 3.3206928E-01  1.0668476E+01
 3.3390900E-01  1.0641464E+01
 3.3574870E-01  1.0532128E+01
 3.3758843E-01  1.0453205E+01
 3.3942813E-01  1.0819366E+01
 3.4126785E-01  1.1672049E+01
 3.4310755E-01  1.3270688E+01
 3.4494731E-01  1.5106566E+01
 3.4678701E-01  1.4280414E+01
 3.4862673E-01  1.2441304E+01
 3.5046649E-01  1.1766706E+01
 3.5230619E-01  1.1334117E+01
 3.5414585E-01  1.1116246E+01
 3.5598561E-01  1.0998224E+01
 3.5782534E-01  1.0861021E+01
 3.5966504E-01  1.0577016E+01
 3.6150479E-01  1.0508662E+01
 3.6334449E-01  1.0651751E+01
 3.6518422E-01  1.0482768E+01
 3.6702392E-01  1.0318910E+01
 3.6886367E-01  1.0340526E+01
 3.7070334E-01  1.0236156E+01
 3.7254310E-01  1.0076060E+01
 3.7438279E-01  1.0220633E+01
 3.7622252E-01  1.0487106E+01
 3.7806222E-01  1.0275844E+01
 3.7990198E-01  1.0215281E+01
 3.8174167E-01  1.0431597E+01
 3.8358140E-01  1.0352389E+01
 3.8542110E-01  1.0403158E+01
 3.8726082E-01  1.0364902E+01
 3.8910052E-01  1.0410552E+01
 3.9094028E-01  1.0401360E+01
 3.9278001E-01  1.0384858E+01
 3.9461970E-01  1.0538280E+01
 3.9645946E-01  1.0594523E+01
 3.9829916E-01  1.0376822E+01
 4.0013888E-01  1.0381886E+01
 4.0197858E-01  1.0390421E+01
 4.0381831E-01  1.0317470E+01
 4.0565801E-01  1.0277299E+01
 4.0749776E-01  1.0183129E+01
 4.0933746E-01  1.0252807E+01
 4.1117719E-01  1.0419106E+01
 4.1301689E-01  1.0406675E+01
 4.1485664E-01  1.0315190E+01
 4.1669631E-01  1.0295298E+01
 4.1853607E-01  1.0441124E+01
 4.2037576E-01  1.0531583E+01
 4.2221549E-01  1.0740242E+01
 4.2405519E-01  1.1126121E+01
 4.2589495E-01  1.1786208E+01
 4.2773467E-01  1.3991693E+01
 4.2957437E-01  2.0190786E+01
 4.3141410E-01  2.7921764E+01
 4.3325379E-01  2.7125660E+01
 4.3509349E-01  1.9836458E+01
 4.3693325E-01  1.6105598E+01
 4.3877298E-01  1.4438486E+01
 4.4061267E-01  1.3523142E+01
 4.4245240E-01  1.2921869E+01
 4.4429213E-01  1.2186025E+01
 4.4613186E-01  1.1496232E+01
 4.4797155E-01  1.1089394E+01
 4.4981128E-01  1.0705375E+01
 4.5165098E-01  1.0628261E+01
 4.5349070E-01  1.0333743E+01
 4.5533043E-01  1.0159690E+01
 4.5717016E-01  1.0193512E+01
 4.5900986E-01  1.0197859E+01
 4.6084961E-01  1.0198417E+01
 4.6268934E-01  1.0217170E+01
 4.6452904E-01  1.0194257E+01
 4.6636876E-01  1.0242565E+01
 4.6820849E-01  1.0259398E+01
 4.7004822E-01  1.0159949E+01
 4.7188789E-01  1.0065377E+01
 4.7372758E-01  1.0110374E+01
 4.7556731E-01  1.0191329E+01
 4.7740707E-01  1.0233588E+01
 4.7924677E-01  1.0322641E+01
 4.8108649E-01  1.0285741E+01
 4.8292622E-01  1.0254157E+01
 4.8476595E-01  1.0238811E+01
 4.8660564E-01  1.0118011E+01
 4.8844537E-01  1.0373065E+01
 4.9028510E-01  1.0433798E+01
 4.9212483E-01  1.0278228E+01
 4.9396452E-01  1.0010649E+01
 4.9580425E-01  1.0246455E+01
 4.9764401E-01  1.0348461E+01
 4.9948370E-01  1.0393077E+01
 5.0132340E-01  1.0274748E+01
 5.0316310E-01  1.0308891E+01
 5.0500286E-01  1.0167911E+01
 5.0684255E-01  1.0056187E+01
 5.0868225E-01  1.0117869E+01
 5.1052195E-01  1.0215703E+01
 5.1236171E-01  1.0415141E+01
 5.1420146E-01  1.0917556E+01
 5.1604116E-01  1.2261070E+01
 5.1788086E-01  1.4260258E+01
 5.1972061E-01  1.3929427E+01
 5.2156031E-01  1.2172370E+01
 5.2340001E-01  1.1325971E+01
 5.2523977E-01  1.0998463E+01
 5.2707946E-01  1.0893064E+01
 5.2891922E-01  1.0829365E+01
 5.3075892E-01  1.0708724E+01
 5.3259867E-01  1.0464634E+01
 5.3443831E-01  1.0300847E+01
 5.3627807E-01  1.0339985E+01
 5.3811777E-01  1.0323215E+01
 5.3995746E-01  1.0285469E+01
 5.4179722E-01  1.0323165E+01
 5.4363692E-01  1.0340128E+01
 5.4547662E-01  1.0496579E+01
 5.4731637E-01  1.0289321E+01
 5.4915613E-01  1.0050128E+01
 5.5099583E-01  1.0195130E+01
 5.5283552E-01  1.0266508E+01
 5.5467528E-01  1.0301109E+01
 5.5651498E-01  1.0276451E+01
 5.5835468E-01  1.0288162E+01
 5.6019443E-01  1.0192213E+01
 5.6203413E-01  1.0042136E+01
 5.6387389E-01  1.0084674E+01
 5.6571352E-01  1.0054235E+01
 5.6755328E-01  1.0040626E+01
 5.6939298E-01  1.0201419E+01
 5.7123274E-01  1.0313012E+01
 5.7307243E-01  1.0083808E+01
 5.7491213E-01  1.0089311E+01
 5.7675189E-01  1.0200336E+01
 5.7859159E-01  1.0181849E+01
 5.8043128E-01  1.0043217E+01
 5.8227104E-01  1.0109459E+01
 5.8411080E-01  1.0157446E+01
 5.8595049E-01  1.0167654E+01
 5.8779019E-01  1.0172510E+01
 5.8962995E-01  1.0237371E+01
 5.9146965E-01  9.9140091E+00
 5.9330934E-01  1.0011582E+01
 5.9514910E-01  1.0097204E+01
 5.9698874E-01  1.0228688E+01
 5.9882849E-01  1.0459580E+01
 6.0066819E-01  1.0928559E+01
 6.0250795E-01  1.1838743E+01
 6.0434765E-01  1.3704799E+01
 6.0618740E-01  1.3891742E+01
 6.0802710E-01  1.2396655E+01
 6.0986680E-01  1.1446085E+01
 6.1170655E-01  1.1181997E+01
 6.1354625E-01  1.0941660E+01
 6.1538601E-01  1.0742840E+01
 6.1722571E-01  1.0449113E+01
 6.1906546E-01  1.0301921E+01
 6.2090516E-01  1.0142229E+01
 6.2274486E-01  1.0095873E+01
 6.2458462E-01  1.0110765E+01
 6.2642431E-01  1.0110304E+01
 6.2826401E-01  1.0080355E+01
 6.3010371E-01  1.0107098E+01
 6.3194340E-01  1.0159530E+01
 6.3378316E-01  1.0190739E+01
 6.3562286E-01  1.0147012E+01
 6.3746262E-01  1.0225678E+01
 6.3930231E-01  1.0157710E+01
 6.4114201E-01  1.0129208E+01
 6.4298177E-01  1.0219646E+01
 6.4482152E-01  1.0144049E+01
 6.4666116E-01  1.0190417E+01
 6.4850092E-01  1.0152788E+01
 6.5034068E-01  1.0137147E+01
 6.5218037E-01  1.0054423E+01
 6.5402013E-01  1.0071605E+01
 6.5585977E-01  1.0058264E+01
 6.5769953E-01  1.0104579E+01
 6.5953922E-01  1.0119879E+01
 6.6137898E-01  1.0170186E+01
 6.6321862E-01  1.0049586E+01
 6.6505837E-01  1.0312147E+01
 6.6689813E-01  1.0360120E+01
 6.6873783E-01  1.0224179E+01
 6.7057753E-01  1.0207668E+01
 6.7241728E-01  1.0230904E+01
 6.7425698E-01  1.0217570E+01
 6.7609674E-01  1.0164149E+01
 6.7793638E-01  1.0088902E+01
 6.7977613E-01  1.0169494E+01
 6.8161589E-01  1.0249449E+01
 6.8345559E-01  1.0270299E+01
 6.8529534E-01  1.0212049E+01
 6.8713504E-01  1.0389739E+01
 6.8897474E-01  1.0685225E+01
 6.9081444E-01  1.1145942E+01
 6.9265413E-01  1.1612410E+01
 6.9449389E-01  1.1082928E+01
 6.9633359E-01  1.0718811E+01
 6.9817334E-01  1.0522321E+01
 7.0001298E-01  1.0462790E+01
 7.0185274E-01  1.0376042E+01
 7.0369250E-01  1.0313602E+01
 7.0553219E-01  1.0292477E+01
 7.0737195E-01  1.0256226E+01
 7.0921165E-01  1.0241057E+01
 7.1105134E-01  1.0114466E+01
 7.1289110E-01  9.9831734E+00
 7.1473086E-01  1.0095210E+01
 7.1657050E-01  1.0160303E+01
 7.1841025E-01  9.9533606E+00
 7.2024995E-01  9.9159155E+00
 7.2208971E-01  1.0016757E+01
 7.2392935E-01  1.0139931E+01
 7.2576910E-01  1.0189230E+01
 7.2760880E-01  9.9641705E+00
 7.2944856E-01  1.0032420E+01
 7.3128831E-01  1.0041779E+01
 7.3312795E-01  1.0103157E+01
 7.3496771E-01  1.0139163E+01
 7.3680747E-01  1.0130040E+01
 7.3864716E-01  1.0095949E+01
 7.4048686E-01  9.9722471E+00
 7.4232656E-01  9.9146976E+00
 7.4416631E-01  9.8686495E+00
 7.4600607E-01  1.0027206E+01
 7.4784571E-01  1.0207470E+01
 7.4968547E-01  1.0205444E+01
 7.5152522E-01  1.0387205E+01
 7.5336492E-01  1.0257078E+01
 7.5520456E-01  1.0210037E+01
 7.5704432E-01  1.0158485E+01
 7.5888407E-01  1.0073984E+01
 7.6072377E-01  1.0128179E+01
 7.6256353E-01  1.0129874E+01
 7.6440316E-01  1.0240710E+01
 7.6624292E-01  1.0343416E+01
 7.6808268E-01  1.0192179E+01
 7.6992232E-01  1.0430989E+01
 7.7176207E-01  1.0771472E+01
 7.7360183E-01  1.1455207E+01
 7.7544153E-01  1.3069435E+01
 7.7728128E-01  1.6080744E+01
 7.7912104E-01  1.7602367E+01
 7.8096068E-01  1.5859830E+01
 7.8280044E-01  1.3540480E+01
 7.8464013E-01  1.2265286E+01
 7.8647977E-01  1.1769270E+01
 7.8831953E-01  1.1528026E+01
 7.9015929E-01  1.1085931E+01
 7.9199898E-01  1.0874152E+01
 7.9383868E-01  1.0538978E+01
 7.9567844E-01  1.0273855E+01
 7.9751813E-01  1.0044358E+01
 7.9935789E-01  1.0286465E+01
 8.0119765E-01  1.0321681E+01
 8.0303729E-01  1.0293160E+01
 8.0487704E-01  1.0160528E+01
 8.0671674E-01  1.0131902E+01
 8.0855650E-01  1.0302650E+01
 8.1039619E-01  1.0233881E+01
 8.1223589E-01  9.9900141E+00
 8.1407565E-01  1.0012223E+01
 8.1591541E-01  1.0274215E+01
 8.1775504E-01  1.0283290E+01
 8.1959474E-01  1.0005188E+01
 8.2143450E-01  1.0110556E+01
 8.2327425E-01  1.0115040E+01
 8.2511389E-01  1.0194670E+01
 8.2695365E-01  1.0084753E+01
 8.2879335E-01  1.0045288E+01
 8.3063310E-01  1.0214454E+01
 8.3247286E-01  1.0139233E+01
 8.3431250E-01  1.0116011E+01
 8.3615226E-01  1.0199950E+01
 8.3799201E-01  1.0294181E+01
 8.3983165E-01  1.0230596E+01
 8.4167141E-01  1.0225440E+01
 8.4351116E-01  1.0044558E+01
 8.4535086E-01  1.0086550E+01
 8.4719062E-01  1.0189645E+01
 8.4903026E-01  1.0139655E+01
 8.5086995E-01  1.0062310E+01
 8.5270971E-01  1.0078250E+01
 8.5454947E-01  1.0100012E+01
 8.5638911E-01  1.0190868E+01
 8.5822886E-01  1.0318128E+01
 8.6006862E-01  1.0372455E+01
 8.6190832E-01  1.0628952E+01
 8.6374801E-01  1.1145170E+01
 8.6558777E-01  1.1528040E+01
 8.6742747E-01  1.1406458E+01
 8.6926723E-01  1.0826002E+01
 8.7110698E-01  1.0551708E+01
 8.7294662E-01  1.0597644E+01
 8.7478638E-01  1.0458452E+01
 8.7662607E-01  1.0274144E+01
 8.7846583E-01  1.0120629E+01
 8.8030547E-01  1.0123106E+01
 8.8214523E-01  1.0233254E+01
 8.8398492E-01  1.0198141E+01
 8.8582468E-01  1.0231730E+01
 8.8766438E-01  1.0217600E+01
 8.8950408E-01  1.0282359E+01
 8.9134383E-01  1.0279645E+01
 8.9318347E-01  1.0203393E+01
 8.9502323E-01  1.0253649E+01
 8.9686292E-01  1.0178993E+01
 8.9870268E-01  1.0197452E+01
 9.0054232E-01  1.0309704E+01
 9.0238219E-01  1.0133119E+01
 9.0422183E-01  1.0196830E+01
 9.0606159E-01  1.0250863E+01
 9.0790129E-01  1.0201708E+01
 9.0974104E-01  1.0145871E+01
 9.1158068E-01  1.0116359E+01
 9.1342050E-01  1.0255302E+01
 9.1526014E-01  1.0204853E+01
 9.1709995E-01  1.0209980E+01
 9.1893959E-01  1.0254521E+01
 9.2077935E-01  1.0193572E+01
 9.2261904E-01  1.0141315E+01
 9.2445880E-01  1.0132859E+01
 9.2629844E-01  1.0226256E+01
 9.2813814E-01  1.0197268E+01
 9.2997795E-01  1.0140816E+01
 9.3181765E-01  1.0250502E+01
 9.3365735E-01  1.0096364E+01
 9.3549705E-01  1.0012254E+01
 9.3733680E-01  1.0049108E+01
 9.3917650E-01  1.0044544E+01
 9.4101620E-01  1.0132704E+01
 9.4285589E-01  1.0246547E+01
 9.4469571E-01  1.0241249E+01
 9.4653541E-01  1.0344508E+01
 9.4837517E-01  1.0543002E+01
 9.5021480E-01  1.0880118E+01
 9.5205456E-01  1.1160037E+01
 9.5389426E-01  1.0765415E+01
 9.5573407E-01  1.0545697E+01
 9.5757365E-01  1.0422363E+01
 9.5941335E-01  1.0355673E+01
 9.6125317E-01  1.0291159E+01
 9.6309286E-01  1.0307171E+01
 9.6493256E-01  1.0304184E+01
 9.6677226E-01  1.0293648E+01
 9.6861202E-01  1.0169600E+01
 9.7045165E-01  1.0192182E+01
 9.7229153E-01  1.0375950E+01
 9.7413117E-01  1.0241741E+01
 9.7597092E-01  1.0074798E+01
 9.7781062E-01  1.0128901E+01
 9.7965038E-01  1.0294905E+01
 9.8149002E-01  1.0290240E+01
 9.8332977E-01  1.0138843E+01
 9.8516947E-01  1.0209963E+01
 9.8700929E-01  1.0313077E+01
 9.8884892E-01  1.0368519E+01
 9.9068862E-01  1.0203290E+01
 9.9252838E-01  1.0096704E+01
 9.9436802E-01  1.0191482E+01
 9.9620777E-01  1.0159345E+01
 9.9804747E-01  1.0111575E+01
 9.9988729E-01  1.0131424E+01
 1.0017269E+00  1.0144963E+01
 1.0035667E+00  1.0253639E+01
 1.0054064E+00  1.0311102E+01
 1.0072461E+00  1.0151424E+01
 1.0090858E+00  1.0082174E+01
 1.0109255E+00  1.0060500E+01
 1.0127653E+00  1.0111432E+01
 1.0146050E+00  1.0125599E+01
 1.0164447E+00  1.0170383E+01
 1.0182844E+00  1.0288857E+01
 1.0201242E+00  1.0211242E+01
 1.0219638E+00  1.0082712E+01
 1.0238036E+00  1.0217365E+01
 1.0256432E+00  1.0151244E+01
 1.0274830E+00  9.9408369E+00
 1.0293226E+00  1.0020643E+01
 1.0311625E+00  1.0196307E+01
 1.0330021E+00  1.0333179E+01
 1.0348419E+00  1.0563687E+01
 1.0366817E+00  1.0962318E+01
 1.0385213E+00  1.1438781E+01
 1.0403610E+00  1.1597829E+01
 1.0422008E+00  1.1130896E+01
 1.0440406E+00  1.0707794E+01
 1.0458803E+00  1.0469789E+01
 1.0477200E+00  1.0375524E+01
 1.0495597E+00  1.0374557E+01
 1.0513994E+00  1.0305941E+01
 1.0532390E+00  1.0309824E+01
 1.0550787E+00  1.0386235E+01
 1.0569185E+00  1.0329956E+01
 1.0587583E+00  1.0337328E+01
 1.0605979E+00  1.0194881E+01
 1.0624377E+00  1.0107313E+01
 1.0642774E+00  1.0167234E+01
 1.0661172E+00  1.0166439E+01
 1.0679568E+00  1.0232541E+01
 1.0697966E+00  1.0099500E+01
 1.0716362E+00  1.0120296E+01
 1.0734761E+00  1.0003609E+01
 1.0753157E+00  1.0091220E+01
 1.0771555E+00  1.0069290E+01
 1.0789951E+00  1.0042639E+01
 1.0808349E+00  1.0066590E+01
 1.0826746E+00  1.0121026E+01
 1.0845143E+00  1.0098530E+01
 1.0863540E+00  1.0083456E+01
 1.0881937E+00  1.0009923E+01
 1.0900335E+00  9.9193144E+00
 1.0918732E+00  1.0139507E+01
 1.0937129E+00  1.0204473E+01
 1.0955526E+00  1.0210453E+01
 1.0973923E+00  1.0084715E+01
 1.0992320E+00  9.9799519E+00
 1.1010718E+00  1.0100314E+01
 1.1029115E+00  1.0152760E+01
 1.1047512E+00  1.0085473E+01
 1.1065910E+00  1.0189671E+01
 1.1084306E+00  1.0135039E+01
 1.1102704E+00  1.0165508E+01
 1.1121101E+00  1.0185925E+01
 1.1139498E+00  1.0180138E+01
 1.1157894E+00  1.0235265E+01
 1.1176293E+00  1.0219419E+01
 1.1194689E+00  1.0292660E+01
 1.1213087E+00  1.0289048E+01
 1.1231483E+00  1.0159569E+01
 1.1249881E+00  1.0110937E+01
 1.1268278E+00  1.0164278E+01
 1.1286676E+00  1.0210004E+01
 1.1305072E+00  1.0167866E+01
 1.1323470E+00  1.0155551E+01
 1.1341867E+00  1.0167608E+01
 1.1360265E+00  1.0173580E+01
 1.1378661E+00  1.0106614E+01
 1.1397059E+00  1.0082029E+01
 1.1415455E+00  1.0077806E+01
 1.1433854E+00  1.0060077E+01
 1.1452250E+00  1.0061449E+01
 1.1470647E+00  1.0220238E+01
 1.1489044E+00  1.0103705E+01
 1.1507442E+00  1.0164227E+01
 1.1525840E+00  1.0242068E+01
 1.1544236E+00  1.0250207E+01
 1.1562634E+00  1.0195301E+01
 1.1581030E+00  1.0108094E+01
 1.1599429E+00  9.9513025E+00
 1.1617825E+00  9.8891926E+00
 1.1636223E+00  1.0174916E+01
 1.1654619E+00  1.0179299E+01
 1.1673017E+00  1.0014608E+01
 1.1691413E+00  1.0074224E+01
 1.1709812E+00  1.0003431E+01
 1.1728208E+00  1.0036796E+01
 1.1746606E+00  1.0057423E+01
 1.1765003E+00  9.8986712E+00
 1.1783400E+00  9.9156990E+00
 1.1801797E+00  9.9651928E+00
 1.1820194E+00  1.0043064E+01
 1.1838591E+00  1.0127483E+01
 1.1856987E+00  1.0237218E+01
 1.1875386E+00  1.0163049E+01
 1.1893783E+00  1.0192111E+01
 1.1912180E+00  1.0052417E+01
 1.1930577E+00  1.0079939E+01
 1.1948974E+00  1.0085654E+01
 1.1967372E+00  1.0026780E+01
 1.1985769E+00  1.0049963E+01
 1.2004166E+00  1.0171202E+01
 1.2022563E+00  1.0200875E+01
 1.2040961E+00  1.0152869E+01
 1.2059358E+00  1.0080598E+01
 1.2077755E+00  9.9946899E+00
 1.2096151E+00  1.0193764E+01
 1.2114549E+00  1.0301696E+01
 1.2132946E+00  1.0409687E+01
 1.2151344E+00  1.0368427E+01
 1.2169740E+00  1.0178402E+01
 1.2188138E+00  1.0164945E+01
 1.2206535E+00  1.0174764E+01
 1.2224933E+00  1.0288300E+01
 1.2243329E+00  1.0260933E+01
 1.2261727E+00  1.0164920E+01
 1.2280123E+00  1.0177898E+01
 1.2298522E+00  1.0129726E+01
 1.2316918E+00  1.0105033E+01
 1.2335316E+00  1.0135193E+01
 1.2353712E+00  1.0062631E+01
 1.2372110E+00  1.0089488E+01
 1.2390506E+00  1.0012097E+01
 1.2408904E+00  9.9092188E+00
 1.2427301E+00  1.0038297E+01
 1.2445698E+00  1.0117697E+01
 1.2464097E+00  1.0151977E+01
 1.2482493E+00  1.0059005E+01
 1.2500890E+00  1.0022398E+01
 1.2519287E+00  1.0054461E+01
 1.2537684E+00  1.0057204E+01
 1.2556081E+00  1.0155083E+01
 1.2574480E+00  1.0108200E+01
 1.2592876E+00  1.0003869E+01
 1.2611274E+00  1.0108055E+01
 1.2629670E+00  1.0140097E+01
 1.2648067E+00  1.0064377E+01
 1.2666465E+00  1.0048877E+01
 1.2684863E+00  1.0086889E+01
 1.2703259E+00  1.0097713E+01
 1.2721655E+00  1.0015842E+01
 1.2740054E+00  1.0058318E+01
 1.2758449E+00  1.0128377E+01
 1.2776847E+00  1.0104032E+01
 1.2795244E+00  1.0067519E+01
 1.2813642E+00  1.0122828E+01
 1.2832040E+00  1.0223551E+01
 1.2850437E+00  1.0158288E+01
 1.2868834E+00  1.0056985E+01
 1.2887231E+00  1.0103158E+01
 1.2905629E+00  1.0089218E+01
 1.2924026E+00  1.0045446E+01
 1.2942421E+00  1.0025486E+01
 1.2960820E+00  1.0079325E+01
 1.2979217E+00  1.0244333E+01
 1.2997614E+00  1.0220155E+01
 1.3016012E+00  1.0160765E+01
 1.3034408E+00  1.0157373E+01
 1.3052806E+00  1.0090343E+01
 1.3071203E+00  1.0119762E+01
 1.3089600E+00  1.0039909E+01
 1.3107997E+00  1.0033575E+01
 1.3126395E+00  1.0187983E+01
 1.3144791E+00  1.0223808E+01
 1.3163189E+00  1.0097266E+01
 1.3181586E+00  1.0130185E+01
 1.3199984E+00  1.0075285E+01
 1.3218379E+00  1.0032631E+01
 1.3236779E+00  1.0189777E+01
 1.3255174E+00  1.0159554E+01
 1.3273572E+00  1.0152919E+01
 1.3291969E+00  1.0211257E+01
 1.3310367E+00  1.0145460E+01
 1.3328763E+00  1.0077189E+01
 1.3347161E+00  1.0131244E+01
 1.3365558E+00  1.0092684E+01
 1.3383954E+00  1.0089391E+01
 1.3402354E+00  1.0068992E+01
 1.3420749E+00  1.0088285E+01
 1.3439146E+00  1.0076112E+01
 1.3457544E+00  1.0008904E+01
 1.3475941E+00  9.9547129E+00
 1.3494338E+00  1.0020826E+01
 1.3512737E+00  1.0052684E+01
 1.3531133E+00  1.0047080E+01
 1.3549529E+00  1.0038553E+01
 1.3567927E+00  1.0098226E+01
 1.3586324E+00  9.9693642E+00
 1.3604721E+00  9.8918362E+00
 1.3623118E+00  9.9831514E+00
 1.3641516E+00  1.0138467E+01
 1.3659912E+00  1.0121112E+01
 1.3678311E+00  1.0086127E+01
 1.3696706E+00  1.0000149E+01
 1.3715104E+00  1.0117367E+01
 1.3733501E+00  1.0120355E+01
 1.3751899E+00  1.0054632E+01
 1.3770295E+00  1.0042139E+01
 1.3788694E+00  1.0094246E+01
 1.3807091E+00  1.0133055E+01
 1.3825488E+00  1.0044151E+01
 1.3843886E+00  1.0027964E+01
 1.3862283E+00  1.0125415E+01
 1.3880678E+00  1.0221812E+01
 1.3899076E+00  1.0176933E+01
 1.3917474E+00  9.9821272E+00
 1.3935871E+00  9.9878292E+00
 1.3954269E+00  1.0081923E+01
 1.3972665E+00  1.0125985E+01
 1.3991063E+00  9.9865456E+00
 1.4009460E+00  9.9133263E+00
 1.4027857E+00  1.0062983E+01
 1.4046253E+00  1.0164541E+01
 1.4064651E+00  1.0262279E+01
 1.4083048E+00  1.0167236E+01
 1.4101446E+00  1.0009170E+01
 1.4119843E+00  1.0065478E+01
 1.4138241E+00  1.0160213E+01
 1.4156636E+00  1.0120105E+01
 1.4175034E+00  1.0143764E+01
 1.4193431E+00  1.0069263E+01
 1.4211829E+00  1.0130688E+01
 1.4230226E+00  1.0071880E+01
 1.4248624E+00  1.0074610E+01
 1.4267020E+00  1.0000493E+01
 1.4285419E+00  9.9079208E+00
