/Users/RamaM/Documents/Research/PhD Related Stuff/Beamtimes/Rama_2014_0718/GF_at
2-Theta Angle (Degrees)
Intensity
        777
 9.1985945E-04  1.3999998E+01
 2.7595786E-03  1.4112232E+01
 4.5992970E-03  1.4301705E+01
 6.4390167E-03  1.6358843E+01
 8.2787350E-03  1.7875977E+01
 1.0118454E-02  1.9555649E+01
 1.1958173E-02  2.2733078E+01
 1.3797892E-02  2.6038378E+01
 1.5637610E-02  2.5046652E+01
 1.7477330E-02  1.9654575E+01
 1.9317048E-02  1.6312420E+01
 2.1156766E-02  1.4385707E+01
 2.2996487E-02  1.4190797E+01
 2.4836205E-02  1.3646133E+01
 2.6675925E-02  1.3939455E+01
 2.8515643E-02  1.4337615E+01
 3.0355364E-02  1.4266907E+01
 3.2195084E-02  1.4206226E+01
 3.4034800E-02  1.4000933E+01
 3.5874519E-02  1.4958219E+01
 3.7714239E-02  1.5070014E+01
 3.9553959E-02  1.4964967E+01
 4.1393679E-02  1.5556784E+01
 4.3233395E-02  1.5481256E+01
 4.5073114E-02  1.6396189E+01
 4.6912830E-02  1.7180090E+01
 4.8752550E-02  1.8028156E+01
 5.0592273E-02  1.8951635E+01
 5.2431989E-02  1.9647318E+01
 5.4271709E-02  2.1169357E+01
 5.6111429E-02  2.3279148E+01
 5.7951145E-02  2.6801773E+01
 5.9790868E-02  3.1144365E+01
 6.1630584E-02  3.3372997E+01
 6.3470304E-02  3.5715733E+01
 6.5310016E-02  3.7958530E+01
 6.7149743E-02  4.1167751E+01
 6.8989456E-02  4.5763771E+01
 7.0829175E-02  5.2720905E+01
 7.2668895E-02  6.3808735E+01
 7.4508615E-02  8.5096527E+01
 7.6348342E-02  1.3163499E+02
 7.8188054E-02  2.5139484E+02
 8.0027774E-02  4.5120648E+02
 8.1867486E-02  1.0351481E+03
 8.3707206E-02  2.8837268E+03
 8.5546933E-02  4.5886323E+03
 8.7386653E-02  3.8417217E+03
 8.9226365E-02  2.2566641E+03
 9.1066092E-02  1.3744713E+03
 9.2905805E-02  9.7528552E+02
 9.4745524E-02  7.4309265E+02
 9.6585236E-02  5.5106537E+02
 9.8424964E-02  3.7824512E+02
 1.0026468E-01  2.4624837E+02
 1.0210440E-01  1.5481279E+02
 1.0394412E-01  1.0282470E+02
 1.0578384E-01  7.3785141E+01
 1.0762356E-01  5.6898640E+01
 1.0946327E-01  4.5842426E+01
 1.1130299E-01  3.8194111E+01
 1.1314272E-01  3.3538944E+01
 1.1498243E-01  2.9311220E+01
 1.1682215E-01  2.6204584E+01
 1.1866187E-01  2.3835480E+01
 1.2050160E-01  2.2059650E+01
 1.2234130E-01  2.0351675E+01
 1.2418102E-01  1.8961477E+01
 1.2602074E-01  1.7938166E+01
 1.2786047E-01  1.6737503E+01
 1.2970017E-01  1.6077463E+01
 1.3153991E-01  1.5353131E+01
 1.3337962E-01  1.5066412E+01
 1.3521935E-01  1.4561295E+01
 1.3705906E-01  1.4158308E+01
 1.3889877E-01  1.3895062E+01
 1.4073850E-01  1.3638802E+01
 1.4257821E-01  1.3092762E+01
 1.4441794E-01  1.2944824E+01
 1.4625765E-01  1.2835944E+01
 1.4809737E-01  1.2833469E+01
 1.4993709E-01  1.2806255E+01
 1.5177682E-01  1.2957495E+01
 1.5361653E-01  1.2718670E+01
 1.5545624E-01  1.2380278E+01
 1.5729597E-01  1.2205503E+01
 1.5913568E-01  1.2236026E+01
 1.6097540E-01  1.2032767E+01
 1.6281512E-01  1.1774365E+01
 1.6465485E-01  1.2437126E+01
 1.6649456E-01  1.3529958E+01
 1.6833429E-01  1.6811769E+01
 1.7017400E-01  2.5454557E+01
 1.7201371E-01  2.9938070E+01
 1.7385344E-01  2.4779274E+01
 1.7569315E-01  1.9218029E+01
 1.7753287E-01  1.6485857E+01
 1.7937259E-01  1.5072818E+01
 1.8121231E-01  1.4037357E+01
 1.8305205E-01  1.3771507E+01
 1.8489175E-01  1.3278549E+01
 1.8673146E-01  1.2694094E+01
 1.8857120E-01  1.2043831E+01
 1.9041091E-01  1.1539121E+01
 1.9225064E-01  1.1199273E+01
 1.9409035E-01  1.1046917E+01
 1.9593006E-01  1.1230467E+01
 1.9776979E-01  1.1317511E+01
 1.9960950E-01  1.1226151E+01
 2.0144922E-01  1.1256525E+01
 2.0328894E-01  1.1282560E+01
 2.0512865E-01  1.1088760E+01
 2.0696838E-01  1.0842759E+01
 2.0880809E-01  1.0768285E+01
 2.1064781E-01  1.0840328E+01
 2.1248753E-01  1.0892210E+01
 2.1432726E-01  1.1155101E+01
 2.1616696E-01  1.1183828E+01
 2.1800669E-01  1.0897062E+01
 2.1984643E-01  1.0643860E+01
 2.2168612E-01  1.0628520E+01
 2.2352587E-01  1.0776492E+01
 2.2536558E-01  1.0925624E+01
 2.2720531E-01  1.0773804E+01
 2.2904500E-01  1.0796075E+01
 2.3088470E-01  1.0919645E+01
 2.3272444E-01  1.1004791E+01
 2.3456417E-01  1.0966041E+01
 2.3640388E-01  1.0760317E+01
 2.3824361E-01  1.1148278E+01
 2.4008332E-01  1.1093246E+01
 2.4192305E-01  1.1114042E+01
 2.4376275E-01  1.1334835E+01
 2.4560247E-01  1.1216808E+01
 2.4744219E-01  1.1485040E+01
 2.4928191E-01  1.2217643E+01
 2.5112164E-01  1.3816855E+01
 2.5296137E-01  1.7321741E+01
 2.5480106E-01  2.6284628E+01
 2.5664079E-01  4.8915466E+01
 2.5848052E-01  7.3486023E+01
 2.6032022E-01  7.2766701E+01
 2.6215994E-01  5.2383606E+01
 2.6399967E-01  3.6216358E+01
 2.6583937E-01  2.8517517E+01
 2.6767910E-01  2.4145601E+01
 2.6951882E-01  2.0795576E+01
 2.7135855E-01  1.7832989E+01
 2.7319828E-01  1.5225179E+01
 2.7503797E-01  1.3409274E+01
 2.7687767E-01  1.2163361E+01
 2.7871740E-01  1.1837884E+01
 2.8055713E-01  1.1623573E+01
 2.8239685E-01  1.1251806E+01
 2.8423658E-01  1.1045349E+01
 2.8607631E-01  1.1087036E+01
 2.8791603E-01  1.0790903E+01
 2.8975573E-01  1.0534035E+01
 2.9159543E-01  1.0629504E+01
 2.9343516E-01  1.0752500E+01
 2.9527488E-01  1.0748503E+01
 2.9711461E-01  1.0557463E+01
 2.9895434E-01  1.0563810E+01
 3.0079404E-01  1.0556422E+01
 3.0263376E-01  1.0740612E+01
 3.0447349E-01  1.0900844E+01
 3.0631319E-01  1.0719819E+01
 3.0815291E-01  1.0702074E+01
 3.0999264E-01  1.0658162E+01
 3.1183234E-01  1.0283524E+01
 3.1367207E-01  1.0540604E+01
 3.1551179E-01  1.0770725E+01
 3.1735152E-01  1.0497991E+01
 3.1919125E-01  1.0147108E+01
 3.2103097E-01  1.0036783E+01
 3.2287064E-01  1.0426738E+01
 3.2471037E-01  1.0471047E+01
 3.2655013E-01  1.0472384E+01
 3.2838982E-01  1.0509534E+01
 3.3022955E-01  1.0541858E+01
 3.3206928E-01  1.0743539E+01
 3.3390900E-01  1.0703924E+01
 3.3574870E-01  1.0445485E+01
 3.3758843E-01  1.0478461E+01
 3.3942813E-01  1.0499505E+01
 3.4126785E-01  1.0972703E+01
 3.4310755E-01  1.1967870E+01
 3.4494731E-01  1.3440810E+01
 3.4678701E-01  1.3951406E+01
 3.4862673E-01  1.3136823E+01
 3.5046649E-01  1.2159106E+01
 3.5230619E-01  1.1822765E+01
 3.5414585E-01  1.1268403E+01
 3.5598561E-01  1.0826316E+01
 3.5782534E-01  1.0776752E+01
 3.5966504E-01  1.0848819E+01
 3.6150479E-01  1.0771092E+01
 3.6334449E-01  1.0540954E+01
 3.6518422E-01  1.0409115E+01
 3.6702392E-01  1.0425371E+01
 3.6886367E-01  1.0366919E+01
 3.7070334E-01  1.0322101E+01
 3.7254310E-01  1.0341975E+01
 3.7438279E-01  1.0288010E+01
 3.7622252E-01  1.0306913E+01
 3.7806222E-01  1.0245678E+01
 3.7990198E-01  1.0215100E+01
 3.8174167E-01  1.0231584E+01
 3.8358140E-01  1.0276228E+01
 3.8542110E-01  1.0567081E+01
 3.8726082E-01  1.0541459E+01
 3.8910052E-01  1.0281348E+01
 3.9094028E-01  1.0151046E+01
 3.9278001E-01  1.0353888E+01
 3.9461970E-01  1.0264207E+01
 3.9645946E-01  1.0121694E+01
 3.9829916E-01  1.0187179E+01
 4.0013888E-01  1.0376549E+01
 4.0197858E-01  1.0331132E+01
 4.0381831E-01  1.0428799E+01
 4.0565801E-01  1.0230347E+01
 4.0749776E-01  1.0247123E+01
 4.0933746E-01  1.0386806E+01
 4.1117719E-01  1.0364217E+01
 4.1301689E-01  1.0333432E+01
 4.1485664E-01  1.0171055E+01
 4.1669631E-01  1.0430761E+01
 4.1853607E-01  1.0389002E+01
 4.2037576E-01  1.0417515E+01
 4.2221549E-01  1.0827817E+01
 4.2405519E-01  1.1266952E+01
 4.2589495E-01  1.1685997E+01
 4.2773467E-01  1.3063638E+01
 4.2957437E-01  1.6369974E+01
 4.3141410E-01  2.1610924E+01
 4.3325379E-01  2.4646898E+01
 4.3509349E-01  2.2749657E+01
 4.3693325E-01  1.8617071E+01
 4.3877298E-01  1.5537469E+01
 4.4061267E-01  1.3848332E+01
 4.4245240E-01  1.3006757E+01
 4.4429213E-01  1.2467582E+01
 4.4613186E-01  1.1840657E+01
 4.4797155E-01  1.1365564E+01
 4.4981128E-01  1.1160372E+01
 4.5165098E-01  1.0825144E+01
 4.5349070E-01  1.0786961E+01
 4.5533043E-01  1.0452190E+01
 4.5717016E-01  1.0486644E+01
 4.5900986E-01  1.0657681E+01
 4.6084961E-01  1.0567114E+01
 4.6268934E-01  1.0433154E+01
 4.6452904E-01  1.0361004E+01
 4.6636876E-01  1.0355283E+01
 4.6820849E-01  1.0543612E+01
 4.7004822E-01  1.0535383E+01
 4.7188789E-01  1.0405017E+01
 4.7372758E-01  1.0283798E+01
 4.7556731E-01  1.0411498E+01
 4.7740707E-01  1.0348353E+01
 4.7924677E-01  1.0454003E+01
 4.8108649E-01  1.0521472E+01
 4.8292622E-01  1.0341897E+01
 4.8476595E-01  1.0170919E+01
 4.8660564E-01  1.0313418E+01
 4.8844537E-01  1.0361691E+01
 4.9028510E-01  1.0106716E+01
 4.9212483E-01  1.0380582E+01
 4.9396452E-01  1.0459924E+01
 4.9580425E-01  1.0365016E+01
 4.9764401E-01  1.0342217E+01
 4.9948370E-01  1.0224219E+01
 5.0132340E-01  1.0206517E+01
 5.0316310E-01  1.0420778E+01
 5.0500286E-01  1.0406589E+01
 5.0684255E-01  1.0294279E+01
 5.0868225E-01  1.0273536E+01
 5.1052195E-01  1.0312117E+01
 5.1236171E-01  1.0584365E+01
 5.1420146E-01  1.0937760E+01
 5.1604116E-01  1.1653730E+01
 5.1788086E-01  1.2809161E+01
 5.1972061E-01  1.3261255E+01
 5.2156031E-01  1.2944327E+01
 5.2340001E-01  1.2319409E+01
 5.2523977E-01  1.1551834E+01
 5.2707946E-01  1.1127738E+01
 5.2891922E-01  1.0891898E+01
 5.3075892E-01  1.0793374E+01
 5.3259867E-01  1.0666977E+01
 5.3443831E-01  1.0505487E+01
 5.3627807E-01  1.0557317E+01
 5.3811777E-01  1.0473454E+01
 5.3995746E-01  1.0386414E+01
 5.4179722E-01  1.0361504E+01
 5.4363692E-01  1.0221574E+01
 5.4547662E-01  1.0244449E+01
 5.4731637E-01  1.0294261E+01
 5.4915613E-01  1.0329259E+01
 5.5099583E-01  1.0453689E+01
 5.5283552E-01  1.0357607E+01
 5.5467528E-01  1.0267757E+01
 5.5651498E-01  1.0276000E+01
 5.5835468E-01  1.0298913E+01
 5.6019443E-01  1.0291299E+01
 5.6203413E-01  1.0070115E+01
 5.6387389E-01  9.9389019E+00
 5.6571352E-01  1.0198908E+01
 5.6755328E-01  1.0237351E+01
 5.6939298E-01  1.0198962E+01
 5.7123274E-01  1.0368456E+01
 5.7307243E-01  1.0051578E+01
 5.7491213E-01  1.0194813E+01
 5.7675189E-01  1.0348964E+01
 5.7859159E-01  1.0397484E+01
 5.8043128E-01  1.0385700E+01
 5.8227104E-01  1.0326005E+01
 5.8411080E-01  1.0404863E+01
 5.8595049E-01  1.0295004E+01
 5.8779019E-01  1.0315992E+01
 5.8962995E-01  1.0520180E+01
 5.9146965E-01  1.0616009E+01
 5.9330934E-01  1.0497063E+01
 5.9514910E-01  1.0485910E+01
 5.9698874E-01  1.0481603E+01
 5.9882849E-01  1.0625566E+01
 6.0066819E-01  1.0767461E+01
 6.0250795E-01  1.1440542E+01
 6.0434765E-01  1.2108069E+01
 6.0618740E-01  1.2823230E+01
 6.0802710E-01  1.2674143E+01
 6.0986680E-01  1.1970307E+01
 6.1170655E-01  1.1433742E+01
 6.1354625E-01  1.1111045E+01
 6.1538601E-01  1.0789365E+01
 6.1722571E-01  1.0693428E+01
 6.1906546E-01  1.0506306E+01
 6.2090516E-01  1.0197001E+01
 6.2274486E-01  1.0242480E+01
 6.2458462E-01  1.0422179E+01
 6.2642431E-01  1.0451167E+01
 6.2826401E-01  1.0342353E+01
 6.3010371E-01  1.0439075E+01
 6.3194340E-01  1.0403052E+01
 6.3378316E-01  1.0371991E+01
 6.3562286E-01  1.0356032E+01
 6.3746262E-01  1.0403630E+01
 6.3930231E-01  1.0547720E+01
 6.4114201E-01  1.0284989E+01
 6.4298177E-01  1.0246982E+01
 6.4482152E-01  1.0392279E+01
 6.4666116E-01  1.0268568E+01
 6.4850092E-01  1.0262096E+01
 6.5034068E-01  1.0138190E+01
 6.5218037E-01  1.0150536E+01
 6.5402013E-01  1.0333694E+01
 6.5585977E-01  1.0373413E+01
 6.5769953E-01  1.0203898E+01
 6.5953922E-01  1.0258969E+01
 6.6137898E-01  1.0373072E+01
 6.6321862E-01  1.0338441E+01
 6.6505837E-01  1.0328553E+01
 6.6689813E-01  1.0416394E+01
 6.6873783E-01  1.0457600E+01
 6.7057753E-01  1.0461295E+01
 6.7241728E-01  1.0310849E+01
 6.7425698E-01  1.0315516E+01
 6.7609674E-01  1.0253109E+01
 6.7793638E-01  1.0267301E+01
 6.7977613E-01  1.0344818E+01
 6.8161589E-01  1.0298989E+01
 6.8345559E-01  1.0270914E+01
 6.8529534E-01  1.0389738E+01
 6.8713504E-01  1.0418429E+01
 6.8897474E-01  1.0618851E+01
 6.9081444E-01  1.0838976E+01
 6.9265413E-01  1.1138886E+01
 6.9449389E-01  1.1267101E+01
 6.9633359E-01  1.1006945E+01
 6.9817334E-01  1.1046939E+01
 7.0001298E-01  1.0886893E+01
 7.0185274E-01  1.0504312E+01
 7.0369250E-01  1.0299952E+01
 7.0553219E-01  1.0444221E+01
 7.0737195E-01  1.0511112E+01
 7.0921165E-01  1.0460174E+01
 7.1105134E-01  1.0629272E+01
 7.1289110E-01  1.0432128E+01
 7.1473086E-01  1.0352494E+01
 7.1657050E-01  1.0482833E+01
 7.1841025E-01  1.0598818E+01
 7.2024995E-01  1.0370962E+01
 7.2208971E-01  1.0229170E+01
 7.2392935E-01  1.0141846E+01
 7.2576910E-01  1.0301636E+01
 7.2760880E-01  1.0147620E+01
 7.2944856E-01  1.0353712E+01
 7.3128831E-01  1.0351004E+01
 7.3312795E-01  1.0275732E+01
 7.3496771E-01  1.0394331E+01
 7.3680747E-01  1.0262662E+01
 7.3864716E-01  1.0425814E+01
 7.4048686E-01  1.0460084E+01
 7.4232656E-01  1.0327455E+01
 7.4416631E-01  1.0315553E+01
 7.4600607E-01  1.0318888E+01
 7.4784571E-01  1.0420208E+01
 7.4968547E-01  1.0387705E+01
 7.5152522E-01  1.0371071E+01
 7.5336492E-01  1.0253106E+01
 7.5520456E-01  1.0269113E+01
 7.5704432E-01  1.0398585E+01
 7.5888407E-01  1.0355185E+01
 7.6072377E-01  1.0183398E+01
 7.6256353E-01  1.0196009E+01
 7.6440316E-01  1.0216443E+01
 7.6624292E-01  1.0200985E+01
 7.6808268E-01  1.0408856E+01
 7.6992232E-01  1.0495466E+01
 7.7176207E-01  1.0588378E+01
 7.7360183E-01  1.1228637E+01
 7.7544153E-01  1.1950640E+01
 7.7728128E-01  1.3012968E+01
 7.7912104E-01  1.4381183E+01
 7.8096068E-01  1.5005565E+01
 7.8280044E-01  1.4493471E+01
 7.8464013E-01  1.3472946E+01
 7.8647977E-01  1.2538176E+01
 7.8831953E-01  1.1957260E+01
 7.9015929E-01  1.1547078E+01
 7.9199898E-01  1.1205675E+01
 7.9383868E-01  1.0823959E+01
 7.9567844E-01  1.0654976E+01
 7.9751813E-01  1.0488339E+01
 7.9935789E-01  1.0440095E+01
 8.0119765E-01  1.0491040E+01
 8.0303729E-01  1.0462043E+01
 8.0487704E-01  1.0428707E+01
 8.0671674E-01  1.0432292E+01
 8.0855650E-01  1.0538812E+01
 8.1039619E-01  1.0423447E+01
 8.1223589E-01  1.0181477E+01
 8.1407565E-01  1.0272508E+01
 8.1591541E-01  1.0285661E+01
 8.1775504E-01  1.0343050E+01
 8.1959474E-01  1.0407820E+01
 8.2143450E-01  1.0442642E+01
 8.2327425E-01  1.0355595E+01
 8.2511389E-01  1.0230968E+01
 8.2695365E-01  1.0185518E+01
 8.2879335E-01  1.0288297E+01
 8.3063310E-01  1.0335425E+01
 8.3247286E-01  1.0333092E+01
 8.3431250E-01  1.0153873E+01
 8.3615226E-01  1.0236567E+01
 8.3799201E-01  1.0471288E+01
 8.3983165E-01  1.0433954E+01
 8.4167141E-01  1.0295763E+01
 8.4351116E-01  1.0436960E+01
 8.4535086E-01  1.0385943E+01
 8.4719062E-01  1.0423813E+01
 8.4903026E-01  1.0412804E+01
 8.5086995E-01  1.0424564E+01
 8.5270971E-01  1.0309594E+01
 8.5454947E-01  1.0193892E+01
 8.5638911E-01  1.0267049E+01
 8.5822886E-01  1.0391806E+01
 8.6006862E-01  1.0240294E+01
 8.6190832E-01  1.0515229E+01
 8.6374801E-01  1.0760965E+01
 8.6558777E-01  1.1005441E+01
 8.6742747E-01  1.1249286E+01
 8.6926723E-01  1.1107009E+01
 8.7110698E-01  1.0901502E+01
 8.7294662E-01  1.0740671E+01
 8.7478638E-01  1.0561870E+01
 8.7662607E-01  1.0368617E+01
 8.7846583E-01  1.0397476E+01
 8.8030547E-01  1.0347873E+01
 8.8214523E-01  1.0438072E+01
 8.8398492E-01  1.0563331E+01
 8.8582468E-01  1.0536851E+01
 8.8766438E-01  1.0477393E+01
 8.8950408E-01  1.0382211E+01
 8.9134383E-01  1.0287015E+01
 8.9318347E-01  1.0186588E+01
 8.9502323E-01  1.0355099E+01
 8.9686292E-01  1.0351059E+01
 8.9870268E-01  1.0355950E+01
 9.0054232E-01  1.0317560E+01
 9.0238219E-01  1.0219146E+01
 9.0422183E-01  1.0388178E+01
 9.0606159E-01  1.0273009E+01
 9.0790129E-01  1.0302128E+01
 9.0974104E-01  1.0301462E+01
 9.1158068E-01  1.0363070E+01
 9.1342050E-01  1.0397196E+01
 9.1526014E-01  1.0356607E+01
 9.1709995E-01  1.0333064E+01
 9.1893959E-01  1.0394379E+01
 9.2077935E-01  1.0410910E+01
 9.2261904E-01  1.0478751E+01
 9.2445880E-01  1.0436040E+01
 9.2629844E-01  1.0541578E+01
 9.2813814E-01  1.0559169E+01
 9.2997795E-01  1.0330510E+01
 9.3181765E-01  1.0143483E+01
 9.3365735E-01  1.0184662E+01
 9.3549705E-01  1.0257618E+01
 9.3733680E-01  1.0256698E+01
 9.3917650E-01  1.0269347E+01
 9.4101620E-01  1.0353713E+01
 9.4285589E-01  1.0298126E+01
 9.4469571E-01  1.0257257E+01
 9.4653541E-01  1.0278560E+01
 9.4837517E-01  1.0244966E+01
 9.5021480E-01  1.0521097E+01
 9.5205456E-01  1.0755581E+01
 9.5389426E-01  1.0867707E+01
 9.5573407E-01  1.0809654E+01
 9.5757365E-01  1.0564903E+01
 9.5941335E-01  1.0461563E+01
 9.6125317E-01  1.0489881E+01
 9.6309286E-01  1.0499111E+01
 9.6493256E-01  1.0330472E+01
 9.6677226E-01  1.0304904E+01
 9.6861202E-01  1.0254041E+01
 9.7045165E-01  1.0398213E+01
 9.7229153E-01  1.0534072E+01
 9.7413117E-01  1.0485785E+01
 9.7597092E-01  1.0369242E+01
 9.7781062E-01  1.0356285E+01
 9.7965038E-01  1.0375802E+01
 9.8149002E-01  1.0485870E+01
 9.8332977E-01  1.0368717E+01
 9.8516947E-01  1.0331628E+01
 9.8700929E-01  1.0448321E+01
 9.8884892E-01  1.0347972E+01
 9.9068862E-01  1.0196510E+01
 9.9252838E-01  1.0251116E+01
 9.9436802E-01  1.0261519E+01
 9.9620777E-01  1.0327290E+01
 9.9804747E-01  1.0367875E+01
 9.9988729E-01  1.0313645E+01
 1.0017269E+00  1.0194327E+01
 1.0035667E+00  1.0236328E+01
 1.0054064E+00  1.0352123E+01
 1.0072461E+00  1.0204902E+01
 1.0090858E+00  1.0325499E+01
 1.0109255E+00  1.0375088E+01
 1.0127653E+00  1.0239634E+01
 1.0146050E+00  1.0184562E+01
 1.0164447E+00  1.0376220E+01
 1.0182844E+00  1.0410666E+01
 1.0201242E+00  1.0298348E+01
 1.0219638E+00  1.0296392E+01
 1.0238036E+00  1.0286831E+01
 1.0256432E+00  1.0433544E+01
 1.0274830E+00  1.0395763E+01
 1.0293226E+00  1.0403993E+01
 1.0311625E+00  1.0362291E+01
 1.0330021E+00  1.0416537E+01
 1.0348419E+00  1.0562806E+01
 1.0366817E+00  1.0781120E+01
 1.0385213E+00  1.0903909E+01
 1.0403610E+00  1.1023297E+01
 1.0422008E+00  1.0943240E+01
 1.0440406E+00  1.1074067E+01
 1.0458803E+00  1.1024058E+01
 1.0477200E+00  1.0939124E+01
 1.0495597E+00  1.0760046E+01
 1.0513994E+00  1.0787776E+01
 1.0532390E+00  1.0964293E+01
 1.0550787E+00  1.0725223E+01
 1.0569185E+00  1.0461657E+01
 1.0587583E+00  1.0315989E+01
 1.0605979E+00  1.0300623E+01
 1.0624377E+00  1.0335165E+01
 1.0642774E+00  1.0369477E+01
 1.0661172E+00  1.0430057E+01
 1.0679568E+00  1.0424557E+01
 1.0697966E+00  1.0272301E+01
 1.0716362E+00  1.0193953E+01
 1.0734761E+00  1.0144607E+01
 1.0753157E+00  1.0313598E+01
 1.0771555E+00  1.0274299E+01
 1.0789951E+00  1.0319810E+01
 1.0808349E+00  1.0321782E+01
 1.0826746E+00  1.0230616E+01
 1.0845143E+00  1.0310905E+01
 1.0863540E+00  1.0394955E+01
 1.0881937E+00  1.0315372E+01
 1.0900335E+00  1.0260981E+01
 1.0918732E+00  1.0394948E+01
 1.0937129E+00  1.0454455E+01
 1.0955526E+00  1.0271273E+01
 1.0973923E+00  1.0349164E+01
 1.0992320E+00  1.0282864E+01
 1.1010718E+00  1.0192124E+01
 1.1029115E+00  1.0154587E+01
 1.1047512E+00  1.0183381E+01
 1.1065910E+00  1.0207557E+01
 1.1084306E+00  1.0308192E+01
 1.1102704E+00  1.0437915E+01
 1.1121101E+00  1.0442529E+01
 1.1139498E+00  1.0363922E+01
 1.1157894E+00  1.0405993E+01
 1.1176293E+00  1.0442857E+01
 1.1194689E+00  1.0483493E+01
 1.1213087E+00  1.0467469E+01
 1.1231483E+00  1.0305834E+01
 1.1249881E+00  1.0361043E+01
 1.1268278E+00  1.0400729E+01
 1.1286676E+00  1.0198200E+01
 1.1305072E+00  1.0280434E+01
 1.1323470E+00  1.0395074E+01
 1.1341867E+00  1.0340034E+01
 1.1360265E+00  1.0248517E+01
 1.1378661E+00  1.0339145E+01
 1.1397059E+00  1.0345919E+01
 1.1415455E+00  1.0371631E+01
 1.1433854E+00  1.0346495E+01
 1.1452250E+00  1.0310816E+01
 1.1470647E+00  1.0361386E+01
 1.1489044E+00  1.0113038E+01
 1.1507442E+00  9.9776211E+00
 1.1525840E+00  1.0117044E+01
 1.1544236E+00  1.0294030E+01
 1.1562634E+00  1.0378169E+01
 1.1581030E+00  1.0382758E+01
 1.1599429E+00  1.0358915E+01
 1.1617825E+00  1.0307234E+01
 1.1636223E+00  1.0301175E+01
 1.1654619E+00  1.0394228E+01
 1.1673017E+00  1.0459818E+01
 1.1691413E+00  1.0374825E+01
 1.1709812E+00  1.0218612E+01
 1.1728208E+00  1.0270304E+01
 1.1746606E+00  1.0325017E+01
 1.1765003E+00  1.0163224E+01
 1.1783400E+00  1.0120879E+01
 1.1801797E+00  1.0322144E+01
 1.1820194E+00  1.0438983E+01
 1.1838591E+00  1.0323794E+01
 1.1856987E+00  1.0227547E+01
 1.1875386E+00  1.0369606E+01
 1.1893783E+00  1.0393495E+01
 1.1912180E+00  1.0293389E+01
 1.1930577E+00  1.0238791E+01
 1.1948974E+00  1.0110157E+01
 1.1967372E+00  1.0140294E+01
 1.1985769E+00  1.0200376E+01
 1.2004166E+00  1.0312248E+01
 1.2022563E+00  1.0229250E+01
 1.2040961E+00  1.0269189E+01
 1.2059358E+00  1.0365814E+01
 1.2077755E+00  1.0257020E+01
 1.2096151E+00  1.0295347E+01
 1.2114549E+00  1.0349100E+01
 1.2132946E+00  1.0408782E+01
 1.2151344E+00  1.0558971E+01
 1.2169740E+00  1.0521901E+01
 1.2188138E+00  1.0443214E+01
 1.2206535E+00  1.0350607E+01
 1.2224933E+00  1.0328237E+01
 1.2243329E+00  1.0258628E+01
 1.2261727E+00  1.0189119E+01
 1.2280123E+00  1.0262596E+01
 1.2298522E+00  1.0375400E+01
 1.2316918E+00  1.0412054E+01
 1.2335316E+00  1.0349549E+01
 1.2353712E+00  1.0302689E+01
 1.2372110E+00  1.0257360E+01
 1.2390506E+00  1.0308236E+01
 1.2408904E+00  1.0409526E+01
 1.2427301E+00  1.0334707E+01
 1.2445698E+00  1.0283168E+01
 1.2464097E+00  1.0247062E+01
 1.2482493E+00  1.0171871E+01
 1.2500890E+00  1.0147391E+01
 1.2519287E+00  1.0324617E+01
 1.2537684E+00  1.0391680E+01
 1.2556081E+00  1.0281204E+01
 1.2574480E+00  1.0283782E+01
 1.2592876E+00  1.0301450E+01
 1.2611274E+00  1.0240531E+01
 1.2629670E+00  1.0187487E+01
 1.2648067E+00  1.0243082E+01
 1.2666465E+00  1.0326707E+01
 1.2684863E+00  1.0402279E+01
 1.2703259E+00  1.0252742E+01
 1.2721655E+00  1.0246402E+01
 1.2740054E+00  1.0256994E+01
 1.2758449E+00  1.0332942E+01
 1.2776847E+00  1.0333226E+01
 1.2795244E+00  1.0375993E+01
 1.2813642E+00  1.0399506E+01
 1.2832040E+00  1.0363269E+01
 1.2850437E+00  1.0378383E+01
 1.2868834E+00  1.0399258E+01
 1.2887231E+00  1.0229036E+01
 1.2905629E+00  1.0246369E+01
 1.2924026E+00  1.0362445E+01
 1.2942421E+00  1.0544473E+01
 1.2960820E+00  1.0490893E+01
 1.2979217E+00  1.0320284E+01
 1.2997614E+00  1.0192151E+01
 1.3016012E+00  1.0272020E+01
 1.3034408E+00  1.0378303E+01
 1.3052806E+00  1.0354007E+01
 1.3071203E+00  1.0258381E+01
 1.3089600E+00  1.0162695E+01
 1.3107997E+00  1.0200358E+01
 1.3126395E+00  1.0352856E+01
 1.3144791E+00  1.0337584E+01
 1.3163189E+00  1.0390527E+01
 1.3181586E+00  1.0395175E+01
 1.3199984E+00  1.0393640E+01
 1.3218379E+00  1.0335917E+01
 1.3236779E+00  1.0245687E+01
 1.3255174E+00  1.0451570E+01
 1.3273572E+00  1.0338874E+01
 1.3291969E+00  1.0313460E+01
 1.3310367E+00  1.0339427E+01
 1.3328763E+00  1.0350286E+01
 1.3347161E+00  1.0200274E+01
 1.3365558E+00  1.0149334E+01
 1.3383954E+00  1.0263061E+01
 1.3402354E+00  1.0332026E+01
 1.3420749E+00  1.0319323E+01
 1.3439146E+00  1.0252499E+01
 1.3457544E+00  1.0222235E+01
 1.3475941E+00  1.0291561E+01
 1.3494338E+00  1.0270543E+01
 1.3512737E+00  1.0263766E+01
 1.3531133E+00  1.0256143E+01
 1.3549529E+00  1.0329785E+01
 1.3567927E+00  1.0323671E+01
 1.3586324E+00  1.0335379E+01
 1.3604721E+00  1.0217207E+01
 1.3623118E+00  1.0259583E+01
 1.3641516E+00  1.0273643E+01
 1.3659912E+00  1.0344508E+01
 1.3678311E+00  1.0309538E+01
 1.3696706E+00  1.0427020E+01
 1.3715104E+00  1.0429866E+01
 1.3733501E+00  1.0377925E+01
 1.3751899E+00  1.0421016E+01
 1.3770295E+00  1.0307688E+01
 1.3788694E+00  1.0328217E+01
 1.3807091E+00  1.0488445E+01
 1.3825488E+00  1.0494656E+01
 1.3843886E+00  1.0437235E+01
 1.3862283E+00  1.0403762E+01
 1.3880678E+00  1.0308768E+01
 1.3899076E+00  1.0365195E+01
 1.3917474E+00  1.0392412E+01
 1.3935871E+00  1.0407413E+01
 1.3954269E+00  1.0417623E+01
 1.3972665E+00  1.0412374E+01
 1.3991063E+00  1.0434126E+01
 1.4009460E+00  1.0508334E+01
 1.4027857E+00  1.0338609E+01
 1.4046253E+00  1.0401338E+01
 1.4064651E+00  1.0443280E+01
 1.4083048E+00  1.0429905E+01
 1.4101446E+00  1.0260490E+01
 1.4119843E+00  1.0255152E+01
 1.4138241E+00  1.0368187E+01
 1.4156636E+00  1.0320249E+01
 1.4175034E+00  1.0404285E+01
 1.4193431E+00  1.0336978E+01
 1.4211829E+00  1.0297689E+01
 1.4230226E+00  1.0239504E+01
 1.4248624E+00  1.0327580E+01
 1.4267020E+00  1.0267366E+01
 1.4285419E+00  1.0109586E+01
