/Users/RamaM/Documents/Research/PhD Related Stuff/Beamtimes/Rama_2014_0718/GF_dp
2-Theta Angle (Degrees)
Intensity
        777
 9.1985945E-04  1.3471618E+01
 2.7595786E-03  1.4647942E+01
 4.5992970E-03  1.6127895E+01
 6.4390167E-03  1.5866081E+01
 8.2787350E-03  1.5348042E+01
 1.0118454E-02  1.5817995E+01
 1.1958173E-02  1.8753380E+01
 1.3797892E-02  2.1080482E+01
 1.5637610E-02  2.0546864E+01
 1.7477330E-02  1.7130661E+01
 1.9317048E-02  1.5286041E+01
 2.1156766E-02  1.3451077E+01
 2.2996487E-02  1.2377422E+01
 2.4836205E-02  1.2385534E+01
 2.6675925E-02  1.3074751E+01
 2.8515643E-02  1.3019214E+01
 3.0355364E-02  1.2019182E+01
 3.2195084E-02  1.2120513E+01
 3.4034800E-02  1.3678994E+01
 3.5874519E-02  1.3447160E+01
 3.7714239E-02  1.3532719E+01
 3.9553959E-02  1.3465011E+01
 4.1393679E-02  1.3548352E+01
 4.3233395E-02  1.3953341E+01
 4.5073114E-02  1.4505953E+01
 4.6912830E-02  1.4921526E+01
 4.8752550E-02  1.5533580E+01
 5.0592273E-02  1.5757640E+01
 5.2431989E-02  1.6493708E+01
 5.4271709E-02  1.7452112E+01
 5.6111429E-02  1.8929537E+01
 5.7951145E-02  2.1458290E+01
 5.9790868E-02  2.5455692E+01
 6.1630584E-02  2.7412090E+01
 6.3470304E-02  2.7997257E+01
 6.5310016E-02  2.8438238E+01
 6.7149743E-02  3.0983440E+01
 6.8989456E-02  3.4055180E+01
 7.0829175E-02  3.7457333E+01
 7.2668895E-02  4.4403114E+01
 7.4508615E-02  5.7632366E+01
 7.6348342E-02  8.4078758E+01
 7.8188054E-02  1.4337570E+02
 8.0027774E-02  2.4807358E+02
 8.1867486E-02  5.7358826E+02
 8.3707206E-02  1.7494143E+03
 8.5546933E-02  2.9042410E+03
 8.7386653E-02  2.4504985E+03
 8.9226365E-02  1.4187397E+03
 9.1066092E-02  8.4854083E+02
 9.2905805E-02  5.9911389E+02
 9.4745524E-02  4.5228976E+02
 9.6585236E-02  3.2970511E+02
 9.8424964E-02  2.2497304E+02
 1.0026468E-01  1.5066016E+02
 1.0210440E-01  9.9207695E+01
 1.0394412E-01  6.8861435E+01
 1.0578384E-01  5.0226898E+01
 1.0762356E-01  3.8655350E+01
 1.0946327E-01  3.2272610E+01
 1.1130299E-01  2.7522980E+01
 1.1314272E-01  2.4154783E+01
 1.1498243E-01  2.1420979E+01
 1.1682215E-01  1.9570408E+01
 1.1866187E-01  1.8532295E+01
 1.2050160E-01  1.7586903E+01
 1.2234130E-01  1.6181965E+01
 1.2418102E-01  1.5404049E+01
 1.2602074E-01  1.5227965E+01
 1.2786047E-01  1.4914301E+01
 1.2970017E-01  1.4429614E+01
 1.3153991E-01  1.3760176E+01
 1.3337962E-01  1.3265890E+01
 1.3521935E-01  1.2848129E+01
 1.3705906E-01  1.2747994E+01
 1.3889877E-01  1.2759268E+01
 1.4073850E-01  1.2529929E+01
 1.4257821E-01  1.2262230E+01
 1.4441794E-01  1.2223285E+01
 1.4625765E-01  1.2015635E+01
 1.4809737E-01  1.1671709E+01
 1.4993709E-01  1.1652951E+01
 1.5177682E-01  1.1602288E+01
 1.5361653E-01  1.1085737E+01
 1.5545624E-01  1.0882467E+01
 1.5729597E-01  1.1140292E+01
 1.5913568E-01  1.0789424E+01
 1.6097540E-01  1.1061843E+01
 1.6281512E-01  1.1213672E+01
 1.6465485E-01  1.1306066E+01
 1.6649456E-01  1.1876849E+01
 1.6833429E-01  1.2766558E+01
 1.7017400E-01  1.7192545E+01
 1.7201371E-01  2.1550159E+01
 1.7385344E-01  1.9408508E+01
 1.7569315E-01  1.5858912E+01
 1.7753287E-01  1.3877819E+01
 1.7937259E-01  1.2926911E+01
 1.8121231E-01  1.2755487E+01
 1.8305205E-01  1.2256205E+01
 1.8489175E-01  1.2207262E+01
 1.8673146E-01  1.2047263E+01
 1.8857120E-01  1.1798364E+01
 1.9041091E-01  1.1520027E+01
 1.9225064E-01  1.1416008E+01
 1.9409035E-01  1.1294465E+01
 1.9593006E-01  1.0939389E+01
 1.9776979E-01  1.0749248E+01
 1.9960950E-01  1.0669176E+01
 2.0144922E-01  1.0803375E+01
 2.0328894E-01  1.0749224E+01
 2.0512865E-01  1.0259353E+01
 2.0696838E-01  1.0619119E+01
 2.0880809E-01  1.0542661E+01
 2.1064781E-01  1.0301672E+01
 2.1248753E-01  1.0415659E+01
 2.1432726E-01  1.0601591E+01
 2.1616696E-01  1.0661168E+01
 2.1800669E-01  1.1030006E+01
 2.1984643E-01  1.0802580E+01
 2.2168612E-01  1.0424575E+01
 2.2352587E-01  1.0542549E+01
 2.2536558E-01  1.0726034E+01
 2.2720531E-01  1.0677730E+01
 2.2904500E-01  1.0699057E+01
 2.3088470E-01  1.0801595E+01
 2.3272444E-01  1.0870328E+01
 2.3456417E-01  1.0877525E+01
 2.3640388E-01  1.0979303E+01
 2.3824361E-01  1.0814997E+01
 2.4008332E-01  1.0933998E+01
 2.4192305E-01  1.1012049E+01
 2.4376275E-01  1.1053573E+01
 2.4560247E-01  1.1491096E+01
 2.4744219E-01  1.1813741E+01
 2.4928191E-01  1.2350136E+01
 2.5112164E-01  1.3750289E+01
 2.5296137E-01  1.6451450E+01
 2.5480106E-01  2.3436005E+01
 2.5664079E-01  5.1310711E+01
 2.5848052E-01  9.8137459E+01
 2.6032022E-01  1.0910707E+02
 2.6215994E-01  7.6661369E+01
 2.6399967E-01  4.6882095E+01
 2.6583937E-01  3.4467876E+01
 2.6767910E-01  2.8383362E+01
 2.6951882E-01  2.3686388E+01
 2.7135855E-01  1.9341021E+01
 2.7319828E-01  1.6457325E+01
 2.7503797E-01  1.4234148E+01
 2.7687767E-01  1.2550665E+01
 2.7871740E-01  1.1931186E+01
 2.8055713E-01  1.1503617E+01
 2.8239685E-01  1.1056499E+01
 2.8423658E-01  1.1240786E+01
 2.8607631E-01  1.1280160E+01
 2.8791603E-01  1.0912399E+01
 2.8975573E-01  1.0548321E+01
 2.9159543E-01  1.0579840E+01
 2.9343516E-01  1.0488311E+01
 2.9527488E-01  1.0611722E+01
 2.9711461E-01  1.0489484E+01
 2.9895434E-01  1.0467337E+01
 3.0079404E-01  1.0305287E+01
 3.0263376E-01  1.0448011E+01
 3.0447349E-01  1.0485456E+01
 3.0631319E-01  1.0345012E+01
 3.0815291E-01  1.0376348E+01
 3.0999264E-01  1.0307884E+01
 3.1183234E-01  1.0439384E+01
 3.1367207E-01  1.0656169E+01
 3.1551179E-01  1.0774341E+01
 3.1735152E-01  1.0419669E+01
 3.1919125E-01  1.0387478E+01
 3.2103097E-01  1.0450741E+01
 3.2287064E-01  1.0301275E+01
 3.2471037E-01  1.0221079E+01
 3.2655013E-01  1.0360682E+01
 3.2838982E-01  1.0341461E+01
 3.3022955E-01  1.0341030E+01
 3.3206928E-01  1.0372859E+01
 3.3390900E-01  1.0390453E+01
 3.3574870E-01  1.0488477E+01
 3.3758843E-01  1.0443590E+01
 3.3942813E-01  1.0522918E+01
 3.4126785E-01  1.0657814E+01
 3.4310755E-01  1.1188878E+01
 3.4494731E-01  1.2953430E+01
 3.4678701E-01  1.5033697E+01
 3.4862673E-01  1.4341948E+01
 3.5046649E-01  1.2379169E+01
 3.5230619E-01  1.1592797E+01
 3.5414585E-01  1.1209201E+01
 3.5598561E-01  1.1026141E+01
 3.5782534E-01  1.1007670E+01
 3.5966504E-01  1.0740848E+01
 3.6150479E-01  1.0529841E+01
 3.6334449E-01  1.0324938E+01
 3.6518422E-01  1.0303938E+01
 3.6702392E-01  1.0404790E+01
 3.6886367E-01  1.0472448E+01
 3.7070334E-01  1.0345903E+01
 3.7254310E-01  1.0321415E+01
 3.7438279E-01  1.0411103E+01
 3.7622252E-01  1.0262960E+01
 3.7806222E-01  1.0062359E+01
 3.7990198E-01  1.0240410E+01
 3.8174167E-01  1.0242837E+01
 3.8358140E-01  1.0323402E+01
 3.8542110E-01  1.0437713E+01
 3.8726082E-01  1.0454532E+01
 3.8910052E-01  1.0496329E+01
 3.9094028E-01  1.0316515E+01
 3.9278001E-01  1.0123785E+01
 3.9461970E-01  1.0255662E+01
 3.9645946E-01  1.0441430E+01
 3.9829916E-01  1.0531207E+01
 4.0013888E-01  1.0372225E+01
 4.0197858E-01  1.0394412E+01
 4.0381831E-01  1.0324700E+01
 4.0565801E-01  1.0360449E+01
 4.0749776E-01  1.0204510E+01
 4.0933746E-01  1.0272459E+01
 4.1117719E-01  1.0444170E+01
 4.1301689E-01  1.0567863E+01
 4.1485664E-01  1.0429688E+01
 4.1669631E-01  1.0446430E+01
 4.1853607E-01  1.0466729E+01
 4.2037576E-01  1.0417624E+01
 4.2221549E-01  1.0578197E+01
 4.2405519E-01  1.0916718E+01
 4.2589495E-01  1.1545139E+01
 4.2773467E-01  1.2397779E+01
 4.2957437E-01  1.4976214E+01
 4.3141410E-01  2.3194349E+01
 4.3325379E-01  3.5413757E+01
 4.3509349E-01  3.5625965E+01
 4.3693325E-01  2.4926014E+01
 4.3877298E-01  1.8917341E+01
 4.4061267E-01  1.6131845E+01
 4.4245240E-01  1.4787744E+01
 4.4429213E-01  1.3513992E+01
 4.4613186E-01  1.2613264E+01
 4.4797155E-01  1.1925630E+01
 4.4981128E-01  1.1288752E+01
 4.5165098E-01  1.0894751E+01
 4.5349070E-01  1.0606288E+01
 4.5533043E-01  1.0480496E+01
 4.5717016E-01  1.0522897E+01
 4.5900986E-01  1.0428586E+01
 4.6084961E-01  1.0352419E+01
 4.6268934E-01  1.0395947E+01
 4.6452904E-01  1.0464366E+01
 4.6636876E-01  1.0365745E+01
 4.6820849E-01  1.0379810E+01
 4.7004822E-01  1.0283498E+01
 4.7188789E-01  1.0095572E+01
 4.7372758E-01  1.0181757E+01
 4.7556731E-01  1.0334270E+01
 4.7740707E-01  1.0568805E+01
 4.7924677E-01  1.0599424E+01
 4.8108649E-01  1.0390628E+01
 4.8292622E-01  1.0141825E+01
 4.8476595E-01  1.0210736E+01
 4.8660564E-01  1.0131680E+01
 4.8844537E-01  1.0151635E+01
 4.9028510E-01  1.0201193E+01
 4.9212483E-01  1.0355395E+01
 4.9396452E-01  1.0300858E+01
 4.9580425E-01  9.9992809E+00
 4.9764401E-01  1.0004260E+01
 4.9948370E-01  1.0225287E+01
 5.0132340E-01  1.0491570E+01
 5.0316310E-01  1.0178829E+01
 5.0500286E-01  1.0148935E+01
 5.0684255E-01  1.0298388E+01
 5.0868225E-01  1.0237216E+01
 5.1052195E-01  1.0290183E+01
 5.1236171E-01  1.0341286E+01
 5.1420146E-01  1.0591708E+01
 5.1604116E-01  1.0997875E+01
 5.1788086E-01  1.2383940E+01
 5.1972061E-01  1.4933058E+01
 5.2156031E-01  1.5750984E+01
 5.2340001E-01  1.3862454E+01
 5.2523977E-01  1.2442966E+01
 5.2707946E-01  1.1587914E+01
 5.2891922E-01  1.1218974E+01
 5.3075892E-01  1.0887075E+01
 5.3259867E-01  1.0562755E+01
 5.3443831E-01  1.0448220E+01
 5.3627807E-01  1.0380557E+01
 5.3811777E-01  1.0356297E+01
 5.3995746E-01  1.0185180E+01
 5.4179722E-01  1.0018757E+01
 5.4363692E-01  1.0058355E+01
 5.4547662E-01  1.0218586E+01
 5.4731637E-01  1.0256330E+01
 5.4915613E-01  1.0186479E+01
 5.5099583E-01  1.0447493E+01
 5.5283552E-01  1.0400584E+01
 5.5467528E-01  1.0276821E+01
 5.5651498E-01  1.0330070E+01
 5.5835468E-01  1.0592846E+01
 5.6019443E-01  1.0461879E+01
 5.6203413E-01  1.0289524E+01
 5.6387389E-01  1.0371884E+01
 5.6571352E-01  1.0298135E+01
 5.6755328E-01  1.0371928E+01
 5.6939298E-01  1.0540234E+01
 5.7123274E-01  1.0334721E+01
 5.7307243E-01  1.0140481E+01
 5.7491213E-01  1.0106524E+01
 5.7675189E-01  1.0115031E+01
 5.7859159E-01  1.0335093E+01
 5.8043128E-01  1.0325776E+01
 5.8227104E-01  1.0232735E+01
 5.8411080E-01  1.0226243E+01
 5.8595049E-01  1.0417672E+01
 5.8779019E-01  1.0419023E+01
 5.8962995E-01  1.0408155E+01
 5.9146965E-01  1.0242419E+01
 5.9330934E-01  1.0125943E+01
 5.9514910E-01  1.0245203E+01
 5.9698874E-01  1.0424155E+01
 5.9882849E-01  1.0459798E+01
 6.0066819E-01  1.0641875E+01
 6.0250795E-01  1.0926268E+01
 6.0434765E-01  1.1871621E+01
 6.0618740E-01  1.4378862E+01
 6.0802710E-01  1.5642857E+01
 6.0986680E-01  1.4072270E+01
 6.1170655E-01  1.2209557E+01
 6.1354625E-01  1.1500466E+01
 6.1538601E-01  1.1103666E+01
 6.1722571E-01  1.0880511E+01
 6.1906546E-01  1.0527774E+01
 6.2090516E-01  1.0359483E+01
 6.2274486E-01  1.0324031E+01
 6.2458462E-01  1.0361098E+01
 6.2642431E-01  1.0303276E+01
 6.2826401E-01  1.0218760E+01
 6.3010371E-01  1.0339492E+01
 6.3194340E-01  1.0377061E+01
 6.3378316E-01  1.0357218E+01
 6.3562286E-01  1.0339310E+01
 6.3746262E-01  1.0352329E+01
 6.3930231E-01  1.0140825E+01
 6.4114201E-01  1.0312041E+01
 6.4298177E-01  1.0439868E+01
 6.4482152E-01  1.0381087E+01
 6.4666116E-01  1.0124753E+01
 6.4850092E-01  1.0186556E+01
 6.5034068E-01  1.0298118E+01
 6.5218037E-01  1.0371199E+01
 6.5402013E-01  1.0223185E+01
 6.5585977E-01  1.0096062E+01
 6.5769953E-01  1.0211342E+01
 6.5953922E-01  1.0145104E+01
 6.6137898E-01  1.0232831E+01
 6.6321862E-01  1.0280496E+01
 6.6505837E-01  1.0200518E+01
 6.6689813E-01  1.0227657E+01
 6.6873783E-01  1.0166625E+01
 6.7057753E-01  1.0317324E+01
 6.7241728E-01  1.0269429E+01
 6.7425698E-01  1.0179669E+01
 6.7609674E-01  1.0178820E+01
 6.7793638E-01  1.0243815E+01
 6.7977613E-01  1.0183562E+01
 6.8161589E-01  1.0178925E+01
 6.8345559E-01  1.0258191E+01
 6.8529534E-01  1.0358659E+01
 6.8713504E-01  1.0318288E+01
 6.8897474E-01  1.0463283E+01
 6.9081444E-01  1.0821824E+01
 6.9265413E-01  1.1592530E+01
 6.9449389E-01  1.2598948E+01
 6.9633359E-01  1.2458282E+01
 6.9817334E-01  1.1557161E+01
 7.0001298E-01  1.1120823E+01
 7.0185274E-01  1.1077832E+01
 7.0369250E-01  1.0770996E+01
 7.0553219E-01  1.0608170E+01
 7.0737195E-01  1.0388350E+01
 7.0921165E-01  1.0346105E+01
 7.1105134E-01  1.0294617E+01
 7.1289110E-01  1.0323417E+01
 7.1473086E-01  1.0306067E+01
 7.1657050E-01  1.0309604E+01
 7.1841025E-01  1.0393527E+01
 7.2024995E-01  1.0336045E+01
 7.2208971E-01  1.0337041E+01
 7.2392935E-01  1.0151885E+01
 7.2576910E-01  1.0138291E+01
 7.2760880E-01  1.0086522E+01
 7.2944856E-01  1.0217630E+01
 7.3128831E-01  1.0261099E+01
 7.3312795E-01  1.0128184E+01
 7.3496771E-01  1.0140193E+01
 7.3680747E-01  1.0178417E+01
 7.3864716E-01  1.0149434E+01
 7.4048686E-01  1.0239367E+01
 7.4232656E-01  1.0364882E+01
 7.4416631E-01  1.0474507E+01
 7.4600607E-01  1.0365661E+01
 7.4784571E-01  1.0334422E+01
 7.4968547E-01  1.0162128E+01
 7.5152522E-01  1.0104104E+01
 7.5336492E-01  1.0189744E+01
 7.5520456E-01  1.0416018E+01
 7.5704432E-01  1.0307466E+01
 7.5888407E-01  1.0086377E+01
 7.6072377E-01  1.0239398E+01
 7.6256353E-01  1.0276258E+01
 7.6440316E-01  1.0268631E+01
 7.6624292E-01  1.0329145E+01
 7.6808268E-01  1.0427632E+01
 7.6992232E-01  1.0385151E+01
 7.7176207E-01  1.0552087E+01
 7.7360183E-01  1.0632666E+01
 7.7544153E-01  1.0831106E+01
 7.7728128E-01  1.1612812E+01
 7.7912104E-01  1.4191693E+01
 7.8096068E-01  1.8211246E+01
 7.8280044E-01  1.9031857E+01
 7.8464013E-01  1.6029448E+01
 7.8647977E-01  1.3765325E+01
 7.8831953E-01  1.2660220E+01
 7.9015929E-01  1.1872913E+01
 7.9199898E-01  1.1383401E+01
 7.9383868E-01  1.0982858E+01
 7.9567844E-01  1.0559377E+01
 7.9751813E-01  1.0498428E+01
 7.9935789E-01  1.0426454E+01
 8.0119765E-01  1.0324225E+01
 8.0303729E-01  1.0287545E+01
 8.0487704E-01  1.0081998E+01
 8.0671674E-01  1.0042765E+01
 8.0855650E-01  1.0241340E+01
 8.1039619E-01  1.0292391E+01
 8.1223589E-01  1.0124743E+01
 8.1407565E-01  1.0233517E+01
 8.1591541E-01  1.0186769E+01
 8.1775504E-01  1.0088676E+01
 8.1959474E-01  1.0175710E+01
 8.2143450E-01  1.0146141E+01
 8.2327425E-01  1.0178437E+01
 8.2511389E-01  1.0203359E+01
 8.2695365E-01  1.0186375E+01
 8.2879335E-01  1.0210231E+01
 8.3063310E-01  1.0251831E+01
 8.3247286E-01  1.0152149E+01
 8.3431250E-01  1.0205465E+01
 8.3615226E-01  1.0182724E+01
 8.3799201E-01  1.0227324E+01
 8.3983165E-01  1.0237337E+01
 8.4167141E-01  1.0099833E+01
 8.4351116E-01  1.0155928E+01
 8.4535086E-01  1.0215145E+01
 8.4719062E-01  1.0134851E+01
 8.4903026E-01  1.0223808E+01
 8.5086995E-01  1.0267036E+01
 8.5270971E-01  1.0284914E+01
 8.5454947E-01  1.0437045E+01
 8.5638911E-01  1.0286155E+01
 8.5822886E-01  1.0266725E+01
 8.6006862E-01  1.0186605E+01
 8.6190832E-01  1.0191182E+01
 8.6374801E-01  1.0289245E+01
 8.6558777E-01  1.0789134E+01
 8.6742747E-01  1.1847948E+01
 8.6926723E-01  1.2314314E+01
 8.7110698E-01  1.1838413E+01
 8.7294662E-01  1.1137279E+01
 8.7478638E-01  1.0838246E+01
 8.7662607E-01  1.0643444E+01
 8.7846583E-01  1.0570887E+01
 8.8030547E-01  1.0478674E+01
 8.8214523E-01  1.0232996E+01
 8.8398492E-01  1.0220818E+01
 8.8582468E-01  1.0386043E+01
 8.8766438E-01  1.0404464E+01
 8.8950408E-01  1.0096567E+01
 8.9134383E-01  1.0211867E+01
 8.9318347E-01  1.0245047E+01
 8.9502323E-01  1.0346340E+01
 8.9686292E-01  1.0410375E+01
 8.9870268E-01  1.0364972E+01
 9.0054232E-01  1.0194876E+01
 9.0238219E-01  1.0289394E+01
 9.0422183E-01  1.0244355E+01
 9.0606159E-01  1.0004689E+01
 9.0790129E-01  1.0073481E+01
 9.0974104E-01  1.0200586E+01
 9.1158068E-01  1.0212116E+01
 9.1342050E-01  1.0230064E+01
 9.1526014E-01  1.0077106E+01
 9.1709995E-01  1.0073796E+01
 9.1893959E-01  1.0227451E+01
 9.2077935E-01  1.0245048E+01
 9.2261904E-01  1.0238904E+01
 9.2445880E-01  1.0149342E+01
 9.2629844E-01  1.0182404E+01
 9.2813814E-01  1.0176664E+01
 9.2997795E-01  1.0233355E+01
 9.3181765E-01  1.0306793E+01
 9.3365735E-01  1.0205381E+01
 9.3549705E-01  1.0276742E+01
 9.3733680E-01  1.0387613E+01
 9.3917650E-01  1.0242022E+01
 9.4101620E-01  1.0123765E+01
 9.4285589E-01  1.0148493E+01
 9.4469571E-01  1.0199332E+01
 9.4653541E-01  1.0088779E+01
 9.4837517E-01  1.0186580E+01
 9.5021480E-01  1.0237491E+01
 9.5205456E-01  1.0344460E+01
 9.5389426E-01  1.0772497E+01
 9.5573407E-01  1.1021873E+01
 9.5757365E-01  1.0811869E+01
 9.5941335E-01  1.0547269E+01
 9.6125317E-01  1.0500474E+01
 9.6309286E-01  1.0386013E+01
 9.6493256E-01  1.0330468E+01
 9.6677226E-01  1.0291809E+01
 9.6861202E-01  1.0370335E+01
 9.7045165E-01  1.0425210E+01
 9.7229153E-01  1.0347311E+01
 9.7413117E-01  1.0382361E+01
 9.7597092E-01  1.0395704E+01
 9.7781062E-01  1.0199802E+01
 9.7965038E-01  1.0175393E+01
 9.8149002E-01  1.0231615E+01
 9.8332977E-01  1.0159241E+01
 9.8516947E-01  1.0168710E+01
 9.8700929E-01  1.0216615E+01
 9.8884892E-01  1.0121547E+01
 9.9068862E-01  1.0085980E+01
 9.9252838E-01  1.0171118E+01
 9.9436802E-01  1.0260388E+01
 9.9620777E-01  1.0253814E+01
 9.9804747E-01  1.0111688E+01
 9.9988729E-01  1.0182661E+01
 1.0017269E+00  1.0329004E+01
 1.0035667E+00  1.0292269E+01
 1.0054064E+00  1.0182041E+01
 1.0072461E+00  1.0111328E+01
 1.0090858E+00  1.0165536E+01
 1.0109255E+00  1.0232257E+01
 1.0127653E+00  1.0092880E+01
 1.0146050E+00  1.0120085E+01
 1.0164447E+00  1.0252804E+01
 1.0182844E+00  1.0258801E+01
 1.0201242E+00  1.0381516E+01
 1.0219638E+00  1.0277324E+01
 1.0238036E+00  1.0176003E+01
 1.0256432E+00  1.0223584E+01
 1.0274830E+00  1.0201347E+01
 1.0293226E+00  1.0118539E+01
 1.0311625E+00  1.0306193E+01
 1.0330021E+00  1.0249993E+01
 1.0348419E+00  1.0280896E+01
 1.0366817E+00  1.0454347E+01
 1.0385213E+00  1.0571174E+01
 1.0403610E+00  1.0944045E+01
 1.0422008E+00  1.1638193E+01
 1.0440406E+00  1.1771333E+01
 1.0458803E+00  1.1298611E+01
 1.0477200E+00  1.0857990E+01
 1.0495597E+00  1.0727109E+01
 1.0513994E+00  1.0480510E+01
 1.0532390E+00  1.0528654E+01
 1.0550787E+00  1.0369649E+01
 1.0569185E+00  1.0128031E+01
 1.0587583E+00  1.0170876E+01
 1.0605979E+00  1.0345643E+01
 1.0624377E+00  1.0298871E+01
 1.0642774E+00  1.0222729E+01
 1.0661172E+00  1.0163355E+01
 1.0679568E+00  1.0228230E+01
 1.0697966E+00  1.0300200E+01
 1.0716362E+00  1.0292000E+01
 1.0734761E+00  1.0200660E+01
 1.0753157E+00  1.0262470E+01
 1.0771555E+00  1.0253636E+01
 1.0789951E+00  1.0242464E+01
 1.0808349E+00  1.0243396E+01
 1.0826746E+00  1.0175136E+01
 1.0845143E+00  1.0282403E+01
 1.0863540E+00  1.0322406E+01
 1.0881937E+00  1.0357954E+01
 1.0900335E+00  1.0284328E+01
 1.0918732E+00  1.0292628E+01
 1.0937129E+00  1.0280053E+01
 1.0955526E+00  1.0268301E+01
 1.0973923E+00  1.0251254E+01
 1.0992320E+00  1.0394491E+01
 1.1010718E+00  1.0325013E+01
 1.1029115E+00  1.0346925E+01
 1.1047512E+00  1.0226624E+01
 1.1065910E+00  1.0261485E+01
 1.1084306E+00  1.0236678E+01
 1.1102704E+00  1.0259888E+01
 1.1121101E+00  1.0333748E+01
 1.1139498E+00  1.0366763E+01
 1.1157894E+00  1.0422729E+01
 1.1176293E+00  1.0344743E+01
 1.1194689E+00  1.0212857E+01
 1.1213087E+00  1.0183107E+01
 1.1231483E+00  1.0248561E+01
 1.1249881E+00  1.0083097E+01
 1.1268278E+00  1.0199512E+01
 1.1286676E+00  1.0312851E+01
 1.1305072E+00  1.0330577E+01
 1.1323470E+00  1.0276656E+01
 1.1341867E+00  1.0252424E+01
 1.1360265E+00  1.0288457E+01
 1.1378661E+00  1.0305238E+01
 1.1397059E+00  1.0371593E+01
 1.1415455E+00  1.0456494E+01
 1.1433854E+00  1.0417730E+01
 1.1452250E+00  1.0370399E+01
 1.1470647E+00  1.0290959E+01
 1.1489044E+00  1.0220200E+01
 1.1507442E+00  1.0120008E+01
 1.1525840E+00  1.0184763E+01
 1.1544236E+00  1.0173357E+01
 1.1562634E+00  1.0243346E+01
 1.1581030E+00  1.0282070E+01
 1.1599429E+00  1.0314580E+01
 1.1617825E+00  1.0256235E+01
 1.1636223E+00  1.0156549E+01
 1.1654619E+00  1.0125072E+01
 1.1673017E+00  1.0208265E+01
 1.1691413E+00  1.0210802E+01
 1.1709812E+00  1.0290669E+01
 1.1728208E+00  1.0174782E+01
 1.1746606E+00  1.0165597E+01
 1.1765003E+00  1.0205768E+01
 1.1783400E+00  1.0224815E+01
 1.1801797E+00  1.0279784E+01
 1.1820194E+00  1.0280406E+01
 1.1838591E+00  1.0174911E+01
 1.1856987E+00  1.0123384E+01
 1.1875386E+00  1.0287397E+01
 1.1893783E+00  1.0319087E+01
 1.1912180E+00  1.0254884E+01
 1.1930577E+00  1.0130722E+01
 1.1948974E+00  1.0194354E+01
 1.1967372E+00  1.0232883E+01
 1.1985769E+00  1.0302176E+01
 1.2004166E+00  1.0216506E+01
 1.2022563E+00  1.0219958E+01
 1.2040961E+00  1.0142762E+01
 1.2059358E+00  1.0265792E+01
 1.2077755E+00  1.0383940E+01
 1.2096151E+00  1.0374280E+01
 1.2114549E+00  1.0294767E+01
 1.2132946E+00  1.0293226E+01
 1.2151344E+00  1.0367469E+01
 1.2169740E+00  1.0574021E+01
 1.2188138E+00  1.0565223E+01
 1.2206535E+00  1.0404585E+01
 1.2224933E+00  1.0286152E+01
 1.2243329E+00  1.0221334E+01
 1.2261727E+00  1.0238647E+01
 1.2280123E+00  1.0251060E+01
 1.2298522E+00  1.0229214E+01
 1.2316918E+00  1.0366103E+01
 1.2335316E+00  1.0450773E+01
 1.2353712E+00  1.0436692E+01
 1.2372110E+00  1.0441320E+01
 1.2390506E+00  1.0343778E+01
 1.2408904E+00  1.0206440E+01
 1.2427301E+00  1.0230418E+01
 1.2445698E+00  1.0085743E+01
 1.2464097E+00  1.0115438E+01
 1.2482493E+00  1.0252618E+01
 1.2500890E+00  1.0206087E+01
 1.2519287E+00  1.0275310E+01
 1.2537684E+00  1.0353592E+01
 1.2556081E+00  1.0256840E+01
 1.2574480E+00  1.0208975E+01
 1.2592876E+00  1.0289128E+01
 1.2611274E+00  1.0400208E+01
 1.2629670E+00  1.0269293E+01
 1.2648067E+00  1.0282515E+01
 1.2666465E+00  1.0353523E+01
 1.2684863E+00  1.0251017E+01
 1.2703259E+00  1.0370114E+01
 1.2721655E+00  1.0351812E+01
 1.2740054E+00  1.0316057E+01
 1.2758449E+00  1.0222767E+01
 1.2776847E+00  1.0332088E+01
 1.2795244E+00  1.0668362E+01
 1.2813642E+00  1.0553862E+01
 1.2832040E+00  1.0297189E+01
 1.2850437E+00  1.0292521E+01
 1.2868834E+00  1.0357661E+01
 1.2887231E+00  1.0303665E+01
 1.2905629E+00  1.0249513E+01
 1.2924026E+00  1.0337519E+01
 1.2942421E+00  1.0368155E+01
 1.2960820E+00  1.0302973E+01
 1.2979217E+00  1.0296877E+01
 1.2997614E+00  1.0268807E+01
 1.3016012E+00  1.0481254E+01
 1.3034408E+00  1.0644817E+01
 1.3052806E+00  1.0592810E+01
 1.3071203E+00  1.0466494E+01
 1.3089600E+00  1.0389541E+01
 1.3107997E+00  1.0319164E+01
 1.3126395E+00  1.0325156E+01
 1.3144791E+00  1.0388377E+01
 1.3163189E+00  1.0367107E+01
 1.3181586E+00  1.0364224E+01
 1.3199984E+00  1.0315714E+01
 1.3218379E+00  1.0248824E+01
 1.3236779E+00  1.0331432E+01
 1.3255174E+00  1.0318619E+01
 1.3273572E+00  1.0184649E+01
 1.3291969E+00  1.0180525E+01
 1.3310367E+00  1.0316979E+01
 1.3328763E+00  1.0356733E+01
 1.3347161E+00  1.0271719E+01
 1.3365558E+00  1.0279549E+01
 1.3383954E+00  1.0395303E+01
 1.3402354E+00  1.0278127E+01
 1.3420749E+00  1.0171263E+01
 1.3439146E+00  1.0084626E+01
 1.3457544E+00  1.0196825E+01
 1.3475941E+00  1.0291988E+01
 1.3494338E+00  1.0314844E+01
 1.3512737E+00  1.0379072E+01
 1.3531133E+00  1.0340483E+01
 1.3549529E+00  1.0306019E+01
 1.3567927E+00  1.0260025E+01
 1.3586324E+00  1.0251114E+01
 1.3604721E+00  1.0346733E+01
 1.3623118E+00  1.0390350E+01
 1.3641516E+00  1.0340159E+01
 1.3659912E+00  1.0243926E+01
 1.3678311E+00  1.0227340E+01
 1.3696706E+00  1.0134398E+01
 1.3715104E+00  1.0097249E+01
 1.3733501E+00  1.0092309E+01
 1.3751899E+00  1.0137904E+01
 1.3770295E+00  1.0173954E+01
 1.3788694E+00  1.0304519E+01
 1.3807091E+00  1.0365805E+01
 1.3825488E+00  1.0271873E+01
 1.3843886E+00  1.0388302E+01
 1.3862283E+00  1.0441323E+01
 1.3880678E+00  1.0502340E+01
 1.3899076E+00  1.0468847E+01
 1.3917474E+00  1.0419544E+01
 1.3935871E+00  1.0396482E+01
 1.3954269E+00  1.0394439E+01
 1.3972665E+00  1.0395605E+01
 1.3991063E+00  1.0345082E+01
 1.4009460E+00  1.0263452E+01
 1.4027857E+00  1.0292218E+01
 1.4046253E+00  1.0348898E+01
 1.4064651E+00  1.0257959E+01
 1.4083048E+00  1.0186392E+01
 1.4101446E+00  1.0325271E+01
 1.4119843E+00  1.0292322E+01
 1.4138241E+00  1.0315131E+01
 1.4156636E+00  1.0388981E+01
 1.4175034E+00  1.0433661E+01
 1.4193431E+00  1.0334234E+01
 1.4211829E+00  1.0343726E+01
 1.4230226E+00  1.0300410E+01
 1.4248624E+00  1.0340073E+01
 1.4267020E+00  1.0336940E+01
 1.4285419E+00  1.0341143E+01
