C:\Users\Sashank\Desktop\Beamtime Feb 2012\Rama\WetRTT_MH_main_0003.tif: Azimuth
2-Theta Angle (Degrees)
Intensity
        657
 4.4243680E-03  4.1684978E+01
 1.3273103E-02  4.0795124E+01
 2.2121839E-02  3.6886368E+01
 3.0970575E-02  4.3477158E+01
 3.9819311E-02  4.8803402E+01
 4.8668046E-02  5.1834923E+01
 5.7516780E-02  5.5857204E+01
 6.6365518E-02  6.2017353E+01
 7.5214252E-02  6.9902802E+01
 8.4062986E-02  8.1771492E+01
 9.2911720E-02  9.7287643E+01
 1.0176046E-01  1.2510442E+02
 1.1060920E-01  1.6749670E+02
 1.1945793E-01  2.2945987E+02
 1.2830667E-01  3.3112381E+02
 1.3715540E-01  6.1928125E+02
 1.4600414E-01  2.3010178E+03
 1.5485287E-01  6.2144043E+03
 1.6370161E-01  8.9879453E+03
 1.7255035E-01  3.2828555E+03
 1.8139908E-01  1.1404783E+03
 1.9024782E-01  4.3684735E+02
 1.9909655E-01  2.3447598E+02
 2.0794529E-01  1.5671130E+02
 2.1679403E-01  1.1407671E+02
 2.2564276E-01  8.6528000E+01
 2.3449150E-01  6.8198273E+01
 2.4334022E-01  5.5601662E+01
 2.5218895E-01  4.7868980E+01
 2.6103771E-01  4.1612823E+01
 2.6988643E-01  3.6386768E+01
 2.7873516E-01  3.2448456E+01
 2.8758392E-01  2.9953020E+01
 2.9643264E-01  3.0218218E+01
 3.0528137E-01  3.8732403E+01
 3.1413013E-01  6.2727592E+01
 3.2297885E-01  6.0570126E+01
 3.3182758E-01  4.3492126E+01
 3.4067631E-01  2.7940655E+01
 3.4952506E-01  2.1038546E+01
 3.5837379E-01  1.9180098E+01
 3.6722252E-01  1.8399578E+01
 3.7607127E-01  1.7831976E+01
 3.8492000E-01  1.7239153E+01
 3.9376873E-01  1.6276245E+01
 4.0261748E-01  1.6214264E+01
 4.1146621E-01  1.6204918E+01
 4.2031494E-01  1.6354343E+01
 4.2916366E-01  1.6869677E+01
 4.3801242E-01  1.7536856E+01
 4.4686115E-01  1.9761827E+01
 4.5570987E-01  2.7537149E+01
 4.6455863E-01  5.4859489E+01
 4.7340736E-01  1.1971657E+02
 4.8225608E-01  1.5870447E+02
 4.9110484E-01  9.0733269E+01
 4.9995357E-01  3.4692513E+01
 5.0880229E-01  1.9551729E+01
 5.1765102E-01  1.6213196E+01
 5.2649975E-01  1.5135111E+01
 5.3534847E-01  1.4430888E+01
 5.4419726E-01  1.4141696E+01
 5.5304599E-01  1.3282325E+01
 5.6189471E-01  1.2928802E+01
 5.7074344E-01  1.2738734E+01
 5.7959217E-01  1.2518686E+01
 5.8844090E-01  1.2536446E+01
 5.9728968E-01  1.2581149E+01
 6.0613841E-01  1.2802157E+01
 6.1498713E-01  1.3176890E+01
 6.2383586E-01  1.4448135E+01
 6.3268459E-01  1.8864355E+01
 6.4153332E-01  1.9719618E+01
 6.5038204E-01  1.6048876E+01
 6.5923083E-01  1.2590990E+01
 6.6807956E-01  1.1692732E+01
 6.7692828E-01  1.1899112E+01
 6.8577701E-01  1.1996422E+01
 6.9462574E-01  1.1861396E+01
 7.0347446E-01  1.1573061E+01
 7.1232319E-01  1.1717352E+01
 7.2117198E-01  1.1801916E+01
 7.3002070E-01  1.1857490E+01
 7.3886943E-01  1.1934732E+01
 7.4771816E-01  1.1787434E+01
 7.5656688E-01  1.2168947E+01
 7.6541561E-01  1.2692157E+01
 7.7426440E-01  1.3755915E+01
 7.8311312E-01  2.0659206E+01
 7.9196185E-01  3.7807411E+01
 8.0081058E-01  4.4982677E+01
 8.0965930E-01  3.2643208E+01
 8.1850803E-01  1.8291470E+01
 8.2735676E-01  1.3656698E+01
 8.3620554E-01  1.2693283E+01
 8.4505427E-01  1.1972661E+01
 8.5390300E-01  1.1625558E+01
 8.6275172E-01  1.1535519E+01
 8.7160045E-01  1.1391973E+01
 8.8044918E-01  1.1813593E+01
 8.8929790E-01  1.1964071E+01
 8.9814669E-01  1.1574026E+01
 9.0699542E-01  1.1556136E+01
 9.1584414E-01  1.1790650E+01
 9.2469287E-01  1.1724025E+01
 9.3354160E-01  1.1975399E+01
 9.4239032E-01  1.3933653E+01
 9.5123905E-01  1.7372074E+01
 9.6008784E-01  1.9588959E+01
 9.6893656E-01  1.7133451E+01
 9.7778529E-01  1.2344581E+01
 9.8663402E-01  1.1548963E+01
 9.9548274E-01  1.1605370E+01
 1.0043315E+00  1.1222678E+01
 1.0131803E+00  1.1118727E+01
 1.0220289E+00  1.1193483E+01
 1.0308777E+00  1.1301736E+01
 1.0397264E+00  1.1190469E+01
 1.0485752E+00  1.1203775E+01
 1.0574239E+00  1.1390183E+01
 1.0662726E+00  1.1193773E+01
 1.0751214E+00  1.1182456E+01
 1.0839701E+00  1.1218211E+01
 1.0928189E+00  1.1443254E+01
 1.1016676E+00  1.2793502E+01
 1.1105163E+00  1.6500826E+01
 1.1193651E+00  2.0861248E+01
 1.1282138E+00  1.5781783E+01
 1.1370625E+00  1.2825890E+01
 1.1459112E+00  1.1624981E+01
 1.1547600E+00  1.1368353E+01
 1.1636088E+00  1.1283804E+01
 1.1724575E+00  1.1138614E+01
 1.1813062E+00  1.0970264E+01
 1.1901549E+00  1.0766223E+01
 1.1990037E+00  1.0850922E+01
 1.2078524E+00  1.0866232E+01
 1.2167011E+00  1.0858151E+01
 1.2255499E+00  1.1035416E+01
 1.2343986E+00  1.1260977E+01
 1.2432474E+00  1.1273831E+01
 1.2520961E+00  1.1358323E+01
 1.2609448E+00  1.1545883E+01
 1.2697935E+00  1.2193745E+01
 1.2786423E+00  1.2973307E+01
 1.2874911E+00  1.2889247E+01
 1.2963398E+00  1.1777781E+01
 1.3051885E+00  1.1115258E+01
 1.3140372E+00  1.1035698E+01
 1.3228860E+00  1.0888722E+01
 1.3317347E+00  1.0933531E+01
 1.3405834E+00  1.1101324E+01
 1.3494322E+00  1.1113266E+01
 1.3582809E+00  1.1092336E+01
 1.3671297E+00  1.1037414E+01
 1.3759784E+00  1.1233557E+01
 1.3848271E+00  1.1223253E+01
 1.3936758E+00  1.1418617E+01
 1.4025246E+00  1.1714457E+01
 1.4113734E+00  1.2274519E+01
 1.4202220E+00  1.4716203E+01
 1.4290708E+00  2.1700645E+01
 1.4379195E+00  3.3947414E+01
 1.4467683E+00  2.6041149E+01
 1.4556170E+00  1.5794630E+01
 1.4644657E+00  1.2132521E+01
 1.4733145E+00  1.1415664E+01
 1.4821632E+00  1.1187798E+01
 1.4910120E+00  1.1060795E+01
 1.4998606E+00  1.1037429E+01
 1.5087094E+00  1.0862288E+01
 1.5175581E+00  1.0624768E+01
 1.5264069E+00  1.0800557E+01
 1.5352557E+00  1.0802914E+01
 1.5441043E+00  1.0618421E+01
 1.5529531E+00  1.0802757E+01
 1.5618018E+00  1.0984212E+01
 1.5706506E+00  1.1110293E+01
 1.5794994E+00  1.1597918E+01
 1.5883480E+00  1.3721853E+01
 1.5971968E+00  1.4996448E+01
 1.6060455E+00  1.3725536E+01
 1.6148943E+00  1.1836020E+01
 1.6237429E+00  1.1141796E+01
 1.6325917E+00  1.1039626E+01
 1.6414405E+00  1.0993591E+01
 1.6502892E+00  1.1132696E+01
 1.6591380E+00  1.1107590E+01
 1.6679866E+00  1.0902658E+01
 1.6768354E+00  1.0841996E+01
 1.6856841E+00  1.0918615E+01
 1.6945329E+00  1.0854321E+01
 1.7033817E+00  1.0960896E+01
 1.7122303E+00  1.0998125E+01
 1.7210791E+00  1.0808883E+01
 1.7299278E+00  1.0937986E+01
 1.7387766E+00  1.1600754E+01
 1.7476252E+00  1.3139373E+01
 1.7564740E+00  1.3860302E+01
 1.7653228E+00  1.3011784E+01
 1.7741715E+00  1.1486749E+01
 1.7830203E+00  1.0726553E+01
 1.7918689E+00  1.0665198E+01
 1.8007177E+00  1.0764771E+01
 1.8095664E+00  1.0706678E+01
 1.8184152E+00  1.0658153E+01
 1.8272640E+00  1.0729940E+01
 1.8361126E+00  1.0965679E+01
 1.8449614E+00  1.1042902E+01
 1.8538101E+00  1.0831989E+01
 1.8626589E+00  1.0843416E+01
 1.8715075E+00  1.1001739E+01
 1.8803563E+00  1.1057771E+01
 1.8892051E+00  1.1178919E+01
 1.8980538E+00  1.2121806E+01
 1.9069026E+00  1.4224987E+01
 1.9157512E+00  1.5844128E+01
 1.9246000E+00  1.4766934E+01
 1.9334487E+00  1.1810771E+01
 1.9422975E+00  1.0879932E+01
 1.9511462E+00  1.0745691E+01
 1.9599949E+00  1.0938811E+01
 1.9688437E+00  1.0900908E+01
 1.9776924E+00  1.0832292E+01
 1.9865412E+00  1.0799329E+01
 1.9953899E+00  1.0699389E+01
 2.0042386E+00  1.0589231E+01
 2.0130873E+00  1.0436628E+01
 2.0219362E+00  1.0664733E+01
 2.0307848E+00  1.0943595E+01
 2.0396335E+00  1.1023261E+01
 2.0484822E+00  1.1013225E+01
 2.0573311E+00  1.1039876E+01
 2.0661798E+00  1.1047239E+01
 2.0750284E+00  1.0942668E+01
 2.0838773E+00  1.0940227E+01
 2.0927260E+00  1.0874447E+01
 2.1015747E+00  1.0741197E+01
 2.1104233E+00  1.0854463E+01
 2.1192722E+00  1.0948450E+01
 2.1281209E+00  1.0877842E+01
 2.1369696E+00  1.0872569E+01
 2.1458185E+00  1.0923932E+01
 2.1546671E+00  1.0953897E+01
 2.1635158E+00  1.0842828E+01
 2.1723645E+00  1.0794072E+01
 2.1812134E+00  1.0683367E+01
 2.1900620E+00  1.1009613E+01
 2.1989107E+00  1.1048274E+01
 2.2077596E+00  1.0780521E+01
 2.2166083E+00  1.1146491E+01
 2.2254570E+00  1.1534345E+01
 2.2343059E+00  1.1473674E+01
 2.2431545E+00  1.1003277E+01
 2.2520032E+00  1.0624171E+01
 2.2608519E+00  1.0619432E+01
 2.2697008E+00  1.0720919E+01
 2.2785494E+00  1.0692419E+01
 2.2873981E+00  1.0677974E+01
 2.2962470E+00  1.0745465E+01
 2.3050957E+00  1.0786378E+01
 2.3139443E+00  1.0767497E+01
 2.3227930E+00  1.0858441E+01
 2.3316419E+00  1.0760312E+01
 2.3404906E+00  1.0757084E+01
 2.3493392E+00  1.0871634E+01
 2.3581882E+00  1.0811724E+01
 2.3670368E+00  1.0726132E+01
 2.3758855E+00  1.0754741E+01
 2.3847342E+00  1.1021586E+01
 2.3935831E+00  1.1131248E+01
 2.4024317E+00  1.0920135E+01
 2.4112804E+00  1.0693624E+01
 2.4201293E+00  1.0648911E+01
 2.4289780E+00  1.0756508E+01
 2.4378266E+00  1.0856426E+01
 2.4466753E+00  1.0836367E+01
 2.4555242E+00  1.0871616E+01
 2.4643729E+00  1.0751175E+01
 2.4732215E+00  1.0762698E+01
 2.4820704E+00  1.0565967E+01
 2.4909191E+00  1.0552185E+01
 2.4997678E+00  1.0523247E+01
 2.5086164E+00  1.0654891E+01
 2.5174654E+00  1.0829865E+01
 2.5263140E+00  1.0859543E+01
 2.5351627E+00  1.0800114E+01
 2.5440116E+00  1.0892860E+01
 2.5528603E+00  1.1051714E+01
 2.5617089E+00  1.0772511E+01
 2.5705576E+00  1.0566369E+01
 2.5794065E+00  1.0499813E+01
 2.5882552E+00  1.0473375E+01
 2.5971038E+00  1.0472705E+01
 2.6059527E+00  1.0460138E+01
 2.6148014E+00  1.0593400E+01
 2.6236501E+00  1.0558711E+01
 2.6324987E+00  1.0429672E+01
 2.6413476E+00  1.0478309E+01
 2.6501963E+00  1.0660721E+01
 2.6590450E+00  1.0902919E+01
 2.6678939E+00  1.0999987E+01
 2.6767426E+00  1.0858648E+01
 2.6855912E+00  1.0760737E+01
 2.6944399E+00  1.1068341E+01
 2.7032888E+00  1.1571331E+01
 2.7121375E+00  1.1531510E+01
 2.7209861E+00  1.1125235E+01
 2.7298350E+00  1.0845295E+01
 2.7386837E+00  1.0870617E+01
 2.7475324E+00  1.0753134E+01
 2.7563810E+00  1.0684611E+01
 2.7652299E+00  1.0793104E+01
 2.7740786E+00  1.0850649E+01
 2.7829273E+00  1.0686975E+01
 2.7917762E+00  1.0590655E+01
 2.8006248E+00  1.0643378E+01
 2.8094735E+00  1.0624812E+01
 2.8183222E+00  1.0750491E+01
 2.8271711E+00  1.0865918E+01
 2.8360198E+00  1.0715890E+01
 2.8448684E+00  1.0761520E+01
 2.8537173E+00  1.0718799E+01
 2.8625660E+00  1.0798791E+01
 2.8714147E+00  1.0861447E+01
 2.8802633E+00  1.0873771E+01
 2.8891122E+00  1.0714715E+01
 2.8979609E+00  1.0640013E+01
 2.9068096E+00  1.0706019E+01
 2.9156585E+00  1.0623438E+01
 2.9245071E+00  1.0591690E+01
 2.9333558E+00  1.0697464E+01
 2.9422045E+00  1.0796335E+01
 2.9510534E+00  1.0699897E+01
 2.9599020E+00  1.0632058E+01
 2.9687507E+00  1.0700015E+01
 2.9775996E+00  1.0811289E+01
 2.9864483E+00  1.0840532E+01
 2.9952970E+00  1.0593134E+01
 3.0041456E+00  1.0446236E+01
 3.0129945E+00  1.0615323E+01
 3.0218432E+00  1.0884066E+01
 3.0306919E+00  1.0942679E+01
 3.0395408E+00  1.0982069E+01
 3.0483894E+00  1.0895091E+01
 3.0572381E+00  1.0864317E+01
 3.0660870E+00  1.0826477E+01
 3.0749357E+00  1.0856355E+01
 3.0837843E+00  1.0796407E+01
 3.0926330E+00  1.0703139E+01
 3.1014819E+00  1.0688509E+01
 3.1103306E+00  1.0791978E+01
 3.1191792E+00  1.0926605E+01
 3.1280282E+00  1.0821418E+01
 3.1368768E+00  1.0724421E+01
 3.1457255E+00  1.0733737E+01
 3.1545742E+00  1.0876598E+01
 3.1634231E+00  1.0963862E+01
 3.1722717E+00  1.1495407E+01
 3.1811204E+00  1.2619893E+01
 3.1899693E+00  1.3357519E+01
 3.1988180E+00  1.2263256E+01
 3.2076666E+00  1.1210567E+01
 3.2165153E+00  1.0857397E+01
 3.2253642E+00  1.0818852E+01
 3.2342129E+00  1.0916019E+01
 3.2430615E+00  1.0867535E+01
 3.2519104E+00  1.0677865E+01
 3.2607591E+00  1.0673350E+01
 3.2696078E+00  1.0650125E+01
 3.2784564E+00  1.0713825E+01
 3.2873054E+00  1.0874201E+01
 3.2961540E+00  1.0794577E+01
 3.3050027E+00  1.0742684E+01
 3.3138516E+00  1.0749269E+01
 3.3227003E+00  1.0849752E+01
 3.3315489E+00  1.1210912E+01
 3.3403976E+00  1.1904851E+01
 3.3492465E+00  1.2346958E+01
 3.3580952E+00  1.1595349E+01
 3.3669438E+00  1.0894683E+01
 3.3757927E+00  1.0565113E+01
 3.3846414E+00  1.0523314E+01
 3.3934901E+00  1.0657972E+01
 3.4023387E+00  1.0672094E+01
 3.4111876E+00  1.0640651E+01
 3.4200363E+00  1.0741987E+01
 3.4288850E+00  1.0773698E+01
 3.4377339E+00  1.0718342E+01
 3.4465826E+00  1.0750415E+01
 3.4554312E+00  1.0663521E+01
 3.4642799E+00  1.0651064E+01
 3.4731288E+00  1.0597301E+01
 3.4819775E+00  1.0676360E+01
 3.4908261E+00  1.0980467E+01
 3.4996750E+00  1.1219189E+01
 3.5085237E+00  1.1165026E+01
 3.5173724E+00  1.0888943E+01
 3.5262210E+00  1.0654818E+01
 3.5350699E+00  1.0606681E+01
 3.5439186E+00  1.0633254E+01
 3.5527673E+00  1.0669913E+01
 3.5616162E+00  1.0661715E+01
 3.5704648E+00  1.0740443E+01
 3.5793135E+00  1.0681036E+01
 3.5881622E+00  1.0659789E+01
 3.5970111E+00  1.0678617E+01
 3.6058598E+00  1.0632574E+01
 3.6147084E+00  1.0660539E+01
 3.6235573E+00  1.0583766E+01
 3.6324060E+00  1.0662381E+01
 3.6412547E+00  1.0723545E+01
 3.6501033E+00  1.0713905E+01
 3.6589522E+00  1.0616714E+01
 3.6678009E+00  1.0543483E+01
 3.6766496E+00  1.0564739E+01
 3.6854985E+00  1.0533604E+01
 3.6943471E+00  1.0545821E+01
 3.7031958E+00  1.0564008E+01
 3.7120445E+00  1.0644461E+01
 3.7208934E+00  1.0654495E+01
 3.7297421E+00  1.0567242E+01
 3.7385907E+00  1.0577111E+01
 3.7474396E+00  1.0619657E+01
 3.7562883E+00  1.0927166E+01
 3.7651370E+00  1.0856808E+01
 3.7739856E+00  1.0682224E+01
 3.7828345E+00  1.0729014E+01
 3.7916832E+00  1.0607560E+01
 3.8005319E+00  1.0603344E+01
 3.8093808E+00  1.0761032E+01
 3.8182294E+00  1.0850859E+01
 3.8270781E+00  1.0903983E+01
 3.8359268E+00  1.0816582E+01
 3.8447757E+00  1.0706350E+01
 3.8536243E+00  1.0626475E+01
 3.8624730E+00  1.0552713E+01
 3.8713219E+00  1.0616750E+01
 3.8801706E+00  1.0710233E+01
 3.8890193E+00  1.0767750E+01
 3.8978679E+00  1.0846801E+01
 3.9067168E+00  1.0881372E+01
 3.9155655E+00  1.0792219E+01
 3.9244142E+00  1.0681129E+01
 3.9332631E+00  1.0660908E+01
 3.9421117E+00  1.0712339E+01
 3.9509604E+00  1.0797948E+01
 3.9598093E+00  1.0812455E+01
 3.9686580E+00  1.0942363E+01
 3.9775066E+00  1.1122628E+01
 3.9863553E+00  1.1252580E+01
 3.9952042E+00  1.1130516E+01
 4.0040526E+00  1.0783928E+01
 4.0129018E+00  1.0737460E+01
 4.0217505E+00  1.0659195E+01
 4.0305991E+00  1.0659555E+01
 4.0394478E+00  1.0637306E+01
 4.0482965E+00  1.0733779E+01
 4.0571451E+00  1.0776662E+01
 4.0659938E+00  1.0813684E+01
 4.0748429E+00  1.0741348E+01
 4.0836916E+00  1.0689926E+01
 4.0925403E+00  1.0683394E+01
 4.1013889E+00  1.0707836E+01
 4.1102376E+00  1.0665222E+01
 4.1190863E+00  1.0715911E+01
 4.1279349E+00  1.0745559E+01
 4.1367841E+00  1.0839527E+01
 4.1456327E+00  1.0848910E+01
 4.1544814E+00  1.0964076E+01
 4.1633301E+00  1.0927954E+01
 4.1721787E+00  1.0737621E+01
 4.1810274E+00  1.0686995E+01
 4.1898761E+00  1.0737700E+01
 4.1987252E+00  1.0652824E+01
 4.2075739E+00  1.0571999E+01
 4.2164226E+00  1.0657862E+01
 4.2252712E+00  1.0752493E+01
 4.2341199E+00  1.0715137E+01
 4.2429686E+00  1.0702990E+01
 4.2518172E+00  1.0773646E+01
 4.2606664E+00  1.0805794E+01
 4.2695150E+00  1.0711687E+01
 4.2783637E+00  1.0744203E+01
 4.2872124E+00  1.0812182E+01
 4.2960610E+00  1.1062071E+01
 4.3049097E+00  1.1182276E+01
 4.3137584E+00  1.1000065E+01
 4.3226075E+00  1.1040890E+01
 4.3314562E+00  1.0845994E+01
 4.3403049E+00  1.0666214E+01
 4.3491535E+00  1.0689798E+01
 4.3580022E+00  1.0810405E+01
 4.3668509E+00  1.0791543E+01
 4.3757000E+00  1.0771294E+01
 4.3845487E+00  1.0848700E+01
 4.3933973E+00  1.0703205E+01
 4.4022460E+00  1.0672624E+01
 4.4110947E+00  1.0868951E+01
 4.4199433E+00  1.0854366E+01
 4.4287920E+00  1.0656440E+01
 4.4376411E+00  1.0514359E+01
 4.4464898E+00  1.0583502E+01
 4.4553385E+00  1.0774434E+01
 4.4641871E+00  1.0821736E+01
 4.4730358E+00  1.0745075E+01
 4.4818845E+00  1.0571754E+01
 4.4907331E+00  1.0601418E+01
 4.4995823E+00  1.0711108E+01
 4.5084310E+00  1.0690510E+01
 4.5172796E+00  1.0718354E+01
 4.5261283E+00  1.0576774E+01
 4.5349770E+00  1.0733232E+01
 4.5438256E+00  1.0869834E+01
 4.5526743E+00  1.0769946E+01
 4.5615234E+00  1.0659747E+01
 4.5703721E+00  1.0730559E+01
 4.5792208E+00  1.0773602E+01
 4.5880694E+00  1.0800232E+01
 4.5969181E+00  1.0849370E+01
 4.6057668E+00  1.0962078E+01
 4.6146154E+00  1.0853049E+01
 4.6234646E+00  1.0788823E+01
 4.6323133E+00  1.0920114E+01
 4.6411619E+00  1.0887563E+01
 4.6500106E+00  1.0839457E+01
 4.6588593E+00  1.0894609E+01
 4.6677079E+00  1.0891984E+01
 4.6765566E+00  1.0819339E+01
 4.6854057E+00  1.0776311E+01
 4.6942544E+00  1.0931091E+01
 4.7031031E+00  1.0935359E+01
 4.7119517E+00  1.0710679E+01
 4.7208004E+00  1.0633669E+01
 4.7296491E+00  1.0615036E+01
 4.7384977E+00  1.0691581E+01
 4.7473469E+00  1.0736713E+01
 4.7561955E+00  1.0878662E+01
 4.7650442E+00  1.0924235E+01
 4.7738929E+00  1.1034092E+01
 4.7827415E+00  1.1229319E+01
 4.7915902E+00  1.0920463E+01
 4.8004389E+00  1.0767765E+01
 4.8092880E+00  1.0772999E+01
 4.8181367E+00  1.0688079E+01
 4.8269854E+00  1.0677584E+01
 4.8358340E+00  1.0627420E+01
 4.8446827E+00  1.0614172E+01
 4.8535314E+00  1.0723248E+01
 4.8623800E+00  1.0785761E+01
 4.8712292E+00  1.0710663E+01
 4.8800778E+00  1.0659122E+01
 4.8889265E+00  1.0772653E+01
 4.8977752E+00  1.0889385E+01
 4.9066238E+00  1.0887425E+01
 4.9154725E+00  1.0839715E+01
 4.9243212E+00  1.0715843E+01
 4.9331703E+00  1.0801796E+01
 4.9420190E+00  1.0755980E+01
 4.9508677E+00  1.0760514E+01
 4.9597163E+00  1.0711819E+01
 4.9685650E+00  1.0699996E+01
 4.9774137E+00  1.0696033E+01
 4.9862623E+00  1.0806136E+01
 4.9951115E+00  1.0750311E+01
 5.0039601E+00  1.0818378E+01
 5.0128088E+00  1.0795541E+01
 5.0216575E+00  1.0654892E+01
 5.0305061E+00  1.0731853E+01
 5.0393548E+00  1.0797402E+01
 5.0482035E+00  1.0670010E+01
 5.0570526E+00  1.0681149E+01
 5.0659013E+00  1.0850037E+01
 5.0747499E+00  1.0972209E+01
 5.0835986E+00  1.0896076E+01
 5.0924473E+00  1.0794821E+01
 5.1012959E+00  1.0788576E+01
 5.1101446E+00  1.0826032E+01
 5.1189938E+00  1.0863538E+01
 5.1278424E+00  1.0858504E+01
 5.1366911E+00  1.0791765E+01
 5.1455398E+00  1.0767066E+01
 5.1543884E+00  1.0752795E+01
 5.1632371E+00  1.0874709E+01
 5.1720858E+00  1.0908739E+01
 5.1809349E+00  1.0881283E+01
 5.1897836E+00  1.0885439E+01
 5.1986322E+00  1.0840615E+01
 5.2074809E+00  1.0772677E+01
 5.2163296E+00  1.0839261E+01
 5.2251782E+00  1.0799754E+01
 5.2340269E+00  1.0761021E+01
 5.2428761E+00  1.0857098E+01
 5.2517247E+00  1.0834688E+01
 5.2605734E+00  1.0774438E+01
 5.2694221E+00  1.0738154E+01
 5.2782707E+00  1.0839437E+01
 5.2871194E+00  1.0885525E+01
 5.2959681E+00  1.0806651E+01
 5.3048172E+00  1.0812979E+01
 5.3136659E+00  1.0802330E+01
 5.3225145E+00  1.0826163E+01
 5.3313632E+00  1.0761024E+01
 5.3402119E+00  1.0771532E+01
 5.3490605E+00  1.0762926E+01
 5.3579092E+00  1.0893996E+01
 5.3667583E+00  1.0954631E+01
 5.3756070E+00  1.0972701E+01
 5.3844557E+00  1.0943917E+01
 5.3933043E+00  1.0864879E+01
 5.4021530E+00  1.0883662E+01
 5.4110017E+00  1.1070336E+01
 5.4198503E+00  1.1239363E+01
 5.4286995E+00  1.1018068E+01
 5.4375482E+00  1.0899473E+01
 5.4463968E+00  1.0918118E+01
 5.4552455E+00  1.0913938E+01
 5.4640942E+00  1.0908864E+01
 5.4729428E+00  1.0916289E+01
 5.4817915E+00  1.0822796E+01
 5.4906406E+00  1.0732546E+01
 5.4994893E+00  1.0718116E+01
 5.5083380E+00  1.0816732E+01
 5.5171866E+00  1.0812076E+01
 5.5260353E+00  1.0799410E+01
 5.5348840E+00  1.0815737E+01
 5.5437326E+00  1.0744823E+01
 5.5525818E+00  1.0696793E+01
 5.5614305E+00  1.0768083E+01
 5.5702791E+00  1.0842877E+01
 5.5791278E+00  1.0883313E+01
 5.5879765E+00  1.0785319E+01
 5.5968251E+00  1.0662844E+01
 5.6056738E+00  1.0814288E+01
 5.6145229E+00  1.0854157E+01
 5.6233716E+00  1.0731582E+01
 5.6322203E+00  1.0663966E+01
 5.6410689E+00  1.0801003E+01
 5.6499176E+00  1.0726335E+01
 5.6587663E+00  1.0715962E+01
 5.6676149E+00  1.0761058E+01
 5.6764641E+00  1.0729137E+01
 5.6853127E+00  1.0661837E+01
 5.6941614E+00  1.0719756E+01
 5.7030101E+00  1.0688003E+01
 5.7118587E+00  1.0670102E+01
 5.7207074E+00  1.0571284E+01
 5.7295561E+00  1.0670608E+01
 5.7384052E+00  1.0875501E+01
 5.7472539E+00  1.0888252E+01
 5.7561026E+00  1.0790124E+01
 5.7649512E+00  1.0824382E+01
 5.7737999E+00  1.0710729E+01
 5.7826486E+00  1.0665893E+01
 5.7914972E+00  1.0723359E+01
 5.8003464E+00  1.0747458E+01
 5.8091950E+00  1.0807877E+01
